Date,ADBE,APPF,AVLR,BL,BOX,COUP,CRM,CRWD,DBX,DDOG,DOCU,DOMO,ESTC,EVBG,FIVN,FSLY,HUBS,JCOM,MDLA,MIME,NET,NEWR,NOW,PAYC,PCTY,PD,PFPT,PLAN,PS,PYPL,QLYS,QTWO,RNG,RP,SHOP,SMAR,SQ,TEAM,TENB,TWLO,TWOU,VEEV,WDAY,WORK,ZEN,ZM,ZS,ZUO,OKTA,WIX,WK,YEXT
2020-01-02,334.42999267578125,113.48999786376953,78.05000305175781,52.59000015258789,17.239999771118164,153.57000732421875,166.99000549316406,49.439998626708984,18.09000015258789,36.70000076293945,75.9000015258789,21.040000915527344,65.79000091552734,79.98999786376953,66.76000213623047,21.5,162.57000732421875,95.63999938964844,31.010000228881836,44.22999954223633,17.030000686645508,68.05999755859375,291.239990234375,271.79998779296875,126.77999877929688,24.34000015258789,117.2300033569336,53.779998779296875,17.0,110.75,84.23999786376953,82.81999969482422,173.19000244140625,54.59000015258789,407.80999755859375,45.84000015258789,63.83000183105469,122.87999725341797,24.459999084472656,103.1500015258789,23.530000686645508,143.39999389648438,167.4600067138672,23.020000457763672,79.98999786376953,68.72000122070312,47.33000183105469,14.760000228881836,117.31,127.55,43.36,14.64
2020-01-03,331.80999755859375,112.2699966430664,78.86000061035156,52.810001373291016,16.940000534057617,159.5800018310547,166.1699981689453,50.75,18.0,37.41999816894531,75.55999755859375,21.5,66.08000183105469,80.41999816894531,67.01000213623047,21.760000228881836,164.0,95.55999755859375,29.959999084472656,44.790000915527344,17.170000076293945,67.69000244140625,291.1000061035156,272.7099914550781,125.66999816894531,24.3799991607666,118.1500015258789,54.349998474121094,16.920000076293945,108.76000213623047,83.56999969482422,84.04000091552734,170.5,54.58000183105469,404.2900085449219,45.810001373291016,63.0,123.04000091552734,24.690000534057617,103.5199966430664,23.209999084472656,142.50999450683594,168.44000244140625,22.459999084472656,78.3499984741211,67.27999877929688,47.380001068115234,14.770000457763672,118.29,128.92,43.2,14.25
2020-01-06,333.7099914550781,112.97000122070312,80.06999969482422,53.66999816894531,17.31999969482422,164.75999450683594,173.4499969482422,55.11000061035156,18.530000686645508,39.900001525878906,75.38999938964844,22.690000534057617,67.80999755859375,82.2300033569336,68.33000183105469,21.860000610351562,167.0,96.05999755859375,30.709999084472656,46.150001525878906,17.690000534057617,68.0999984741211,292.8699951171875,278.0899963378906,128.80999755859375,24.639999389648438,120.41000366210938,55.099998474121094,17.260000228881836,110.16999816894531,84.87999725341797,85.25,177.0500030517578,54.56999969482422,413.3299865722656,45.810001373291016,62.56999969482422,127.69000244140625,25.440000534057617,107.45999908447266,23.969999313354492,144.1999969482422,169.49000549316406,23.520000457763672,80.93000030517578,70.31999969482422,48.70000076293945,14.670000076293945,123.43,131.63,43.45,14.77
2020-01-07,333.3900146484375,114.16999816894531,82.51000213623047,53.470001220703125,16.969999313354492,165.75999450683594,176.0,54.75,18.530000686645508,40.060001373291016,75.23999786376953,22.649999618530273,69.4000015258789,82.98999786376953,67.91000366210938,21.399999618530273,168.5,96.33000183105469,30.950000762939453,47.06999969482422,17.670000076293945,68.08000183105469,292.9100036621094,279.489990234375,129.39999389648438,24.719999313354492,122.2300033569336,54.65999984741211,17.149999618530273,109.66999816894531,83.69000244140625,83.30000305175781,176.72999572753906,54.59000015258789,414.5,45.13999938964844,64.58999633789062,128.14999389648438,25.360000610351562,108.05999755859375,23.959999084472656,139.1999969482422,172.9499969482422,23.829999923706055,78.68000030517578,71.9000015258789,48.400001525878906,14.6899995803833,122.89,130.01,43.81,14.71
2020-01-08,337.8699951171875,115.30000305175781,82.13999938964844,55.04999923706055,16.860000610351562,167.4600067138672,177.3300018310547,55.65999984741211,18.459999084472656,39.95000076293945,76.2699966430664,22.610000610351562,69.7699966430664,82.94999694824219,70.19999694824219,21.790000915527344,173.0,97.44999694824219,31.479999542236328,47.849998474121094,17.780000686645508,69.13999938964844,295.6499938964844,283.1199951171875,130.22000122070312,25.270000457763672,123.8499984741211,55.95000076293945,17.43000030517578,111.81999969482422,84.05000305175781,84.13999938964844,180.88999938964844,55.20000076293945,418.1000061035156,45.15999984741211,67.5999984741211,130.05999755859375,26.0,109.38999938964844,24.0,141.6999969482422,178.7100067138672,23.770000457763672,79.80000305175781,72.55000305175781,50.75,14.65999984741211,125.55,133.78,44.09,14.77
2020-01-09,340.45001220703125,118.62000274658203,84.47000122070312,55.4900016784668,16.979999542236328,171.4600067138672,179.60000610351562,55.939998626708984,18.3700008392334,40.209999084472656,75.80000305175781,23.649999618530273,69.37000274658203,83.54000091552734,71.20500183105469,21.610000610351562,177.27999877929688,98.26000213623047,33.689998626708984,48.54999923706055,17.020000457763672,69.44999694824219,299.30999755859375,285.2900085449219,132.22999572753906,24.649999618530273,121.87000274658203,57.59000015258789,17.799999237060547,112.56999969482422,84.08000183105469,84.02999877929688,184.3699951171875,55.220001220703125,430.20001220703125,45.38999938964844,67.93000030517578,135.41000366210938,25.739999771118164,113.0199966430664,23.329999923706055,145.72000122070312,179.47999572753906,23.170000076293945,81.16000366210938,72.62000274658203,54.0,14.880000114440918,128.52,140.08,44.73,14.95
2020-01-10,339.80999755859375,120.05000305175781,83.5999984741211,55.279998779296875,16.809999465942383,169.60000610351562,180.1999969482422,57.20000076293945,17.81999969482422,40.15999984741211,74.83000183105469,24.190000534057617,69.22000122070312,83.66999816894531,71.1500015258789,21.229999542236328,175.77000427246094,99.08999633789062,33.459999084472656,48.79999923706055,17.479999542236328,67.30000305175781,298.8800048828125,285.5799865722656,132.36000061035156,24.209999084472656,121.83999633789062,56.7599983215332,17.895000457763672,112.93000030517578,83.58000183105469,83.1500015258789,183.47999572753906,56.0,429.1700134277344,45.15999984741211,67.98999786376953,133.89999389648438,25.579999923706055,115.73999786376953,21.510000228881836,145.50999450683594,180.11000061035156,23.1200008392334,81.80000305175781,73.08999633789062,55.0,15.029999732971191,129.39,140.26,45.35,14.95
2020-01-13,345.6300048828125,121.13999938964844,85.4000015258789,55.65999984741211,16.600000381469727,173.63999938964844,183.85000610351562,58.970001220703125,17.860000610351562,40.939998626708984,74.1500015258789,24.559999465942383,68.69000244140625,84.95999908447266,72.62000274658203,22.149999618530273,179.4199981689453,99.73999786376953,31.649999618530273,48.459999084472656,18.360000610351562,69.33000183105469,303.8500061035156,295.42999267578125,136.19000244140625,24.920000076293945,121.3499984741211,57.59000015258789,18.020000457763672,115.27999877929688,83.94999694824219,84.81999969482422,186.69000244140625,57.20000076293945,440.25,45.2400016784668,68.66000366210938,136.07000732421875,26.100000381469727,120.33999633789062,21.209999084472656,148.66000366210938,181.9199981689453,23.200000762939453,83.79000091552734,74.02999877929688,59.619998931884766,15.449999809265137,131.16,142.43,46.2,15.59
2020-01-14,344.6300048828125,121.01000213623047,85.18000030517578,56.45000076293945,16.219999313354492,171.10000610351562,182.1199951171875,59.2400016784668,18.0049991607666,39.27000045776367,72.80000305175781,24.290000915527344,70.66999816894531,85.66999816894531,71.91999816894531,22.049999237060547,179.5399932861328,100.18000030517578,32.5,48.9900016784668,18.700000762939453,70.66999816894531,301.5,286.510009765625,135.14999389648438,24.709999084472656,122.44000244140625,57.040000915527344,19.059999465942383,114.63999938964844,84.08999633789062,83.94000244140625,185.7899932861328,57.02000045776367,441.2200012207031,44.439998626708984,68.16999816894531,134.22000122070312,26.010000228881836,119.0199966430664,21.459999084472656,147.77999877929688,179.97999572753906,22.280000686645508,83.2300033569336,73.16000366210938,59.540000915527344,15.34000015258789,129.03,142.74,45.8,15.34
2020-01-15,342.94000244140625,121.93000030517578,86.51000213623047,57.86000061035156,16.079999923706055,169.8699951171875,181.05999755859375,60.25,18.309999465942383,40.22999954223633,73.02999877929688,24.90999984741211,71.5,87.73999786376953,72.72000122070312,22.760000228881836,182.60000610351562,101.69000244140625,31.170000076293945,49.310001373291016,18.850000381469727,72.58999633789062,304.8699951171875,289.0899963378906,136.35000610351562,24.420000076293945,123.44000244140625,57.150001525878906,19.75,114.8499984741211,85.33999633789062,85.51000213623047,189.7100067138672,57.209999084472656,448.510009765625,43.970001220703125,70.36000061035156,134.91000366210938,26.270000457763672,119.87999725341797,21.209999084472656,144.42999267578125,179.17999267578125,22.329999923706055,83.98999786376953,76.94000244140625,59.9900016784668,15.5,128.57,141.97,45.2,15.14
2020-01-16,345.3800048828125,122.8499984741211,85.87999725341797,61.880001068115234,16.600000381469727,168.97999572753906,182.69000244140625,62.2400016784668,18.0,40.61000061035156,73.08000183105469,24.969999313354492,71.87000274658203,89.0,73.30999755859375,24.079999923706055,181.7100067138672,103.12999725341797,31.93000030517578,50.0099983215332,18.959999084472656,72.44000244140625,310.0199890136719,294.30999755859375,139.11000061035156,25.3700008392334,125.36000061035156,57.0099983215332,20.079999923706055,115.4000015258789,85.33999633789062,86.72000122070312,190.8300018310547,57.54999923706055,451.29998779296875,46.09000015258789,69.5199966430664,134.72000122070312,26.8700008392334,119.58000183105469,21.770000457763672,147.32000732421875,182.77999877929688,22.969999313354492,84.69999694824219,76.11000061035156,61.81999969482422,15.65999984741211,128.4,142.67,45.68,15.35
2020-01-17,349.739990234375,124.0999984741211,84.6500015258789,62.29499816894531,16.270000457763672,169.42999267578125,182.22999572753906,63.45000076293945,18.020000457763672,41.189998626708984,72.52999877929688,24.110000610351562,70.47000122070312,88.19999694824219,73.58000183105469,24.40999984741211,181.72000122070312,102.41999816894531,31.770000457763672,49.970001220703125,18.600000381469727,70.47000122070312,312.5199890136719,296.239990234375,141.60000610351562,25.229999542236328,123.26000213623047,56.52000045776367,19.760000228881836,116.04000091552734,84.9000015258789,87.69999694824219,192.88999938964844,57.86000061035156,454.8800048828125,45.2599983215332,69.37999725341797,132.85000610351562,26.68000030517578,119.36000061035156,22.84000015258789,148.07000732421875,181.05999755859375,22.459999084472656,83.97000122070312,75.55999755859375,59.43000030517578,15.350000381469727,125.83,140.27,45.15,15.63
2020-01-21,350.0,123.41999816894531,84.83000183105469,62.2599983215332,16.270000457763672,169.57000732421875,185.27000427246094,62.2400016784668,17.639999389648438,41.130001068115234,73.12999725341797,24.290000915527344,70.33000183105469,87.75,73.1500015258789,24.440000534057617,181.83999633789062,103.47000122070312,31.100000381469727,49.5,18.0,70.44000244140625,312.9800109863281,299.7799987792969,140.97999572753906,24.760000228881836,124.72000122070312,56.33000183105469,19.71500015258789,116.1500015258789,85.41999816894531,87.19999694824219,196.25999450683594,57.790000915527344,465.44000244140625,46.33000183105469,68.30999755859375,131.32000732421875,26.6200008392334,119.08000183105469,21.915000915527344,146.08999633789062,182.30999755859375,22.309999465942383,85.56999969482422,76.7300033569336,60.5099983215332,15.180000305175781,125.26,140.38,44.81,15.75
2020-01-22,350.05999755859375,125.38999938964844,84.25,61.38999938964844,16.18000030517578,167.50999450683594,182.75,62.56999969482422,17.530000686645508,42.220001220703125,74.4000015258789,24.8700008392334,68.91999816894531,88.7699966430664,71.48999786376953,24.65999984741211,183.42999267578125,102.37000274658203,31.420000076293945,49.2400016784668,18.049999237060547,70.66999816894531,312.8500061035156,303.2799987792969,140.8800048828125,25.3799991607666,126.70999908447266,55.59000015258789,19.40999984741211,115.5,86.0999984741211,88.37000274658203,195.1199951171875,57.5099983215332,464.760009765625,47.29999923706055,68.69000244140625,131.4600067138672,26.780000686645508,119.12000274658203,21.639999389648438,145.69000244140625,182.41000366210938,22.139999389648438,85.18000030517578,75.54000091552734,59.91999816894531,15.390000343322754,125.02,140.01,44.27,15.52
2020-01-23,351.760009765625,125.56999969482422,83.22000122070312,60.4900016784668,16.329999923706055,165.25,183.97999572753906,61.54999923706055,17.709999084472656,42.810001373291016,74.33000183105469,25.780000686645508,68.02999877929688,87.125,70.80000305175781,25.18000030517578,185.41000366210938,102.25,31.1299991607666,49.86000061035156,18.170000076293945,69.9800033569336,311.4599914550781,314.8500061035156,139.57000732421875,24.15999984741211,127.16000366210938,56.88999938964844,19.920000076293945,117.88999938964844,87.01000213623047,88.16000366210938,197.64999389648438,58.369998931884766,469.25,46.779998779296875,69.29000091552734,132.63999938964844,27.040000915527344,120.80000305175781,21.46500015258789,145.57000732421875,184.3800048828125,21.219999313354492,85.97000122070312,74.47000122070312,59.310001373291016,15.779999732971191,127.84,140.41,45.29,15.32
2020-01-24,351.3699951171875,124.68000030517578,82.36000061035156,60.279998779296875,16.209999084472656,163.6999969482422,182.11000061035156,59.25,17.34000015258789,42.04999923706055,74.18000030517578,25.209999084472656,66.38999938964844,89.80000305175781,70.87000274658203,24.010000228881836,184.85000610351562,100.0,30.6299991607666,50.130001068115234,17.770000457763672,68.48999786376953,309.3900146484375,314.80999755859375,138.6699981689453,23.719999313354492,128.5800018310547,57.9900016784668,19.770000457763672,116.9800033569336,86.75,87.1500015258789,197.33999633789062,58.439998626708984,465.4800109863281,46.54999923706055,71.13999938964844,146.7899932861328,27.0,121.37999725341797,19.780000686645508,145.19000244140625,186.07000732421875,20.59000015258789,86.19000244140625,73.0,57.79999923706055,15.449999809265137,129.66,141.03,45.41,15.04
2020-01-27,346.8999938964844,125.05999755859375,81.91000366210938,58.599998474121094,15.34000015258789,161.30999755859375,180.7100067138672,58.060001373291016,16.950000762939453,41.255001068115234,72.7699966430664,24.59000015258789,65.11000061035156,89.29000091552734,70.68499755859375,22.860000610351562,182.55999755859375,98.73999786376953,29.84000015258789,48.86000061035156,17.81999969482422,67.70999908447266,307.6300048828125,312.5299987792969,137.66000366210938,23.100000381469727,128.22999572753906,56.75,19.459999084472656,115.23999786376953,85.29000091552734,86.7300033569336,195.14999389648438,58.08000183105469,451.1099853515625,45.25,71.05000305175781,143.8300018310547,26.559999465942383,120.55000305175781,18.84000015258789,141.77999877929688,183.9600067138672,20.059999465942383,84.9000015258789,70.44000244140625,56.040000915527344,15.010000228881836,125.82,139.63,44.97,14.95
2020-01-28,354.6300048828125,127.5999984741211,83.33999633789062,59.689998626708984,15.220000267028809,165.36000061035156,182.85000610351562,59.06999969482422,17.139999389648438,42.15999984741211,74.93000030517578,25.030000686645508,65.98999786376953,90.5,72.23999786376953,23.65999984741211,184.41000366210938,99.75,29.6200008392334,50.02000045776367,18.079999923706055,67.69999694824219,314.04998779296875,318.5899963378906,140.58999633789062,23.65999984741211,128.1300048828125,58.47999954223633,20.010000228881836,116.5199966430664,87.22000122070312,87.93000030517578,200.6199951171875,58.56999969482422,467.6600036621094,46.619998931884766,74.80000305175781,149.27000427246094,26.809999465942383,122.76000213623047,19.829999923706055,145.49000549316406,186.67999267578125,20.979999542236328,85.87000274658203,71.51000213623047,56.5,15.0600004196167,127.47,142.8,45.97,15.23
2020-01-29,351.6600036621094,128.61000061035156,84.80000305175781,59.66999816894531,15.289999961853027,165.25999450683594,181.77000427246094,60.2599983215332,16.950000762939453,43.91999816894531,76.91999816894531,24.809999465942383,66.2699966430664,91.12999725341797,71.63999938964844,24.299999237060547,182.52000427246094,98.80000305175781,29.190000534057617,50.349998474121094,17.59000015258789,68.22000122070312,312.92999267578125,322.04998779296875,140.6699981689453,24.350000381469727,127.98999786376953,57.619998931884766,19.940000534057617,116.66000366210938,87.2300033569336,87.5,203.22999572753906,59.02000045776367,471.6700134277344,47.45000076293945,76.16000366210938,149.14999389648438,27.43000030517578,123.80000305175781,19.610000610351562,145.4199981689453,183.61000061035156,20.799999237060547,86.0,73.58000183105469,57.130001068115234,14.850000381469727,129.0,143.4,45.74,15.18
2020-01-30,356.739990234375,132.22999572753906,87.4800033569336,60.90999984741211,15.220000267028809,165.7899932861328,185.6699981689453,62.45000076293945,17.010000228881836,47.040000915527344,79.11000061035156,24.690000534057617,66.13999938964844,91.61000061035156,72.68000030517578,23.350000381469727,183.91000366210938,99.11000061035156,28.850000381469727,50.720001220703125,18.31999969482422,68.25,341.6199951171875,325.6199951171875,142.47999572753906,24.610000610351562,125.88999938964844,58.369998931884766,19.760000228881836,117.12000274658203,86.80999755859375,89.83000183105469,206.02999877929688,59.290000915527344,476.8800048828125,49.08000183105469,76.0999984741211,149.5800018310547,27.520000457763672,124.80999755859375,20.049999237060547,150.25,188.14999389648438,20.639999389648438,87.0,74.54000091552734,57.689998626708984,15.0,132.94,144.91,47.09,15.35
2020-01-31,351.1400146484375,131.44000244140625,85.13999938964844,61.16999816894531,15.029999732971191,161.14999389648438,182.30999755859375,61.09000015258789,17.020000457763672,46.209999084472656,78.51000213623047,24.219999313354492,64.87999725341797,90.63999938964844,71.7300033569336,22.510000228881836,180.94000244140625,95.86000061035156,28.219999313354492,51.029998779296875,17.860000610351562,66.01000213623047,338.2300109863281,318.1600036621094,141.88999938964844,23.31999969482422,122.80999755859375,57.59000015258789,19.389999389648438,113.88999938964844,85.73999786376953,87.19000244140625,205.5800018310547,58.349998474121094,465.6600036621094,48.47999954223633,74.69000244140625,147.0,27.25,124.33999633789062,19.809999465942383,146.61000061035156,184.6300048828125,20.729999542236328,86.4000015258789,76.30000305175781,56.09000015258789,14.75,128.05,142.69,45.49,14.94
2020-02-03,358.0,132.4600067138672,87.2300033569336,61.5099983215332,15.15999984741211,161.72999572753906,185.4199981689453,61.08000183105469,16.90999984741211,45.2599983215332,80.62999725341797,23.8700008392334,65.5,91.70999908447266,72.70999908447266,22.43000030517578,182.91000366210938,96.38999938964844,28.84000015258789,51.54999923706055,17.690000534057617,67.87000274658203,343.20001220703125,323.4700012207031,144.1199951171875,23.479999542236328,121.4800033569336,59.90999984741211,19.68000030517578,116.51000213623047,85.56999969482422,86.8499984741211,205.75999450683594,58.88999938964844,469.3900146484375,50.5099983215332,79.80000305175781,149.39999389648438,28.209999084472656,128.17999267578125,20.0,148.58999633789062,188.57000732421875,20.979999542236328,87.87999725341797,87.66000366210938,56.81999969482422,15.319999694824219,129.35,145.21,46.16,15.21
2020-02-04,366.739990234375,137.52999877929688,92.7699966430664,63.400001525878906,15.550000190734863,169.07000732421875,188.33999633789062,63.55500030517578,17.100000381469727,47.599998474121094,82.0199966430664,24.670000076293945,69.7300033569336,93.91999816894531,75.16999816894531,22.75,185.72000122070312,98.18000030517578,28.010000228881836,53.060001373291016,17.93000030517578,70.7699966430664,352.0299987792969,337.739990234375,149.75999450683594,24.06999969482422,126.0999984741211,63.400001525878906,19.790000915527344,120.08000183105469,87.41000366210938,89.06999969482422,209.14999389648438,59.83000183105469,485.4599914550781,51.77000045776367,80.9000015258789,152.08999633789062,28.6299991607666,131.89999389648438,21.229999542236328,154.27999877929688,194.6999969482422,23.25,89.5199966430664,85.79000091552734,58.880001068115234,15.9399995803833,134.76,148.28,46.75,15.54
2020-02-05,365.54998779296875,133.52000427246094,88.5,61.349998474121094,15.550000190734863,158.63999938964844,185.49000549316406,61.814998626708984,17.610000610351562,45.72999954223633,80.73999786376953,24.709999084472656,67.16000366210938,91.83999633789062,73.27999877929688,21.06999969482422,177.17999267578125,97.76000213623047,27.790000915527344,52.72999954223633,18.0,62.93000030517578,338.5,322.5,136.77999877929688,22.90999984741211,127.52999877929688,59.43000030517578,19.03499984741211,119.72000122070312,87.97000122070312,85.4000015258789,206.25999450683594,59.25,475.55999755859375,48.84000015258789,78.25,146.5800018310547,27.40999984741211,127.1500015258789,21.8799991607666,151.5,188.47000122070312,23.309999465942383,87.22000122070312,86.98999786376953,58.5099983215332,15.6899995803833,129.67,145.5,46.03,15.49
2020-02-06,367.4599914550781,137.10000610351562,88.63999938964844,61.65999984741211,15.760000228881836,158.5500030517578,186.72999572753906,62.189998626708984,18.260000228881836,46.04999923706055,81.44000244140625,24.690000534057617,69.05999755859375,93.11000061035156,73.9800033569336,21.709999084472656,179.24000549316406,98.62999725341797,28.079999923706055,52.97999954223633,17.770000457763672,64.3499984741211,341.70001220703125,290.7099914550781,136.2899932861328,22.889999389648438,126.06999969482422,59.720001220703125,19.729999542236328,119.88999938964844,88.70999908447266,85.91000366210938,205.16000366210938,60.29999923706055,472.9800109863281,48.54999923706055,78.51000213623047,147.94000244140625,27.969999313354492,117.87000274658203,22.739999771118164,151.11000061035156,187.5,22.649999618530273,86.80999755859375,87.26000213623047,58.400001525878906,15.84000015258789,130.09,147.07,46.34,15.94
2020-02-07,366.0899963378906,136.85000610351562,89.83000183105469,62.0,15.449999809265137,157.8800048828125,185.72000122070312,62.09000015258789,18.100000381469727,47.18000030517578,83.16000366210938,24.75,69.5999984741211,92.54000091552734,73.91999816894531,21.610000610351562,179.47000122070312,98.58999633789062,28.920000076293945,52.91999816894531,18.170000076293945,62.060001373291016,341.05999755859375,293.5299987792969,140.19000244140625,22.5,126.68000030517578,59.869998931884766,19.469999313354492,118.87999725341797,88.56999969482422,86.08000183105469,207.47000122070312,60.27000045776367,478.69000244140625,48.2400016784668,78.86000061035156,148.0,27.190000534057617,122.20999908447266,25.329999923706055,151.6300048828125,192.0800018310547,22.989999771118164,86.94999694824219,88.63999938964844,58.970001220703125,15.710000038146973,132.79,145.05,47.03,15.88
2020-02-10,370.0,136.69000244140625,91.80999755859375,62.91999816894531,15.65999984741211,161.24000549316406,189.1199951171875,63.29999923706055,18.530000686645508,47.95000076293945,84.61000061035156,24.06999969482422,71.5,92.80999755859375,75.87999725341797,21.81999969482422,183.44000244140625,100.0199966430664,28.889999389648438,53.560001373291016,18.34000015258789,61.06999969482422,342.7699890136719,297.989990234375,143.7899932861328,22.889999389648438,128.25,61.02000045776367,19.979999542236328,120.05999755859375,89.91999816894531,88.02999877929688,212.61000061035156,60.5099983215332,491.69000244140625,49.63999938964844,80.16999816894531,151.27999877929688,27.690000534057617,125.70999908447266,23.229999542236328,153.42999267578125,194.86000061035156,26.540000915527344,89.19999694824219,89.66999816894531,60.84000015258789,15.84000015258789,135.76,145.8,47.08,15.75
2020-02-11,369.2799987792969,137.6999969482422,90.8499984741211,63.18000030517578,15.630000114440918,160.02999877929688,189.11000061035156,65.19000244140625,18.600000381469727,47.810001373291016,85.33000183105469,24.780000686645508,71.5,92.16000366210938,75.16999816894531,21.8700008392334,181.89999389648438,95.70999908447266,29.75,48.619998931884766,18.3700008392334,60.20000076293945,343.57000732421875,294.760009765625,142.0500030517578,22.360000610351562,127.68000030517578,60.779998779296875,19.920000076293945,118.83999633789062,89.61000061035156,86.22000122070312,227.02000427246094,60.459999084472656,492.75,49.29999923706055,79.87999725341797,149.0,27.860000610351562,125.41000366210938,25.170000076293945,154.02000427246094,193.07000732421875,25.979999542236328,88.54000091552734,88.68000030517578,60.91999816894531,15.5600004196167,137.27,144.32,46.57,16.21
2020-02-12,374.2900085449219,137.39999389648438,92.68000030517578,63.41999816894531,15.59000015258789,165.36000061035156,189.4600067138672,65.08000183105469,18.56999969482422,50.0099983215332,87.33000183105469,24.610000610351562,72.20999908447266,91.13999938964844,75.62999725341797,22.299999237060547,184.1699981689453,95.75,29.75,46.459999084472656,17.81999969482422,60.060001373291016,349.79998779296875,296.3599853515625,142.8000030517578,22.049999237060547,126.0999984741211,62.56999969482422,20.639999389648438,118.55999755859375,91.05000305175781,87.20999908447266,235.14999389648438,60.54999923706055,531.25,49.13999938964844,80.0,151.5399932861328,28.0,125.91999816894531,24.704999923706055,154.47000122070312,194.39999389648438,25.809999465942383,88.87999725341797,88.27999877929688,60.47999954223633,15.819999694824219,137.58,145.0,46.29,15.9
2020-02-13,374.8399963378906,137.8000030517578,91.25,65.0,15.609999656677246,165.16000366210938,188.63999938964844,65.30999755859375,18.610000610351562,48.5,88.02999877929688,24.950000762939453,72.13999938964844,91.0199966430664,75.9800033569336,22.459999084472656,197.33999633789062,97.69000244140625,29.489999771118164,46.369998931884766,18.06999969482422,62.04999923706055,351.80999755859375,303.2900085449219,146.3699951171875,21.06999969482422,126.06999969482422,62.31999969482422,18.729999542236328,120.51000213623047,90.08000183105469,87.94000244140625,242.85000610351562,60.689998626708984,532.969970703125,49.63999938964844,80.98999786376953,153.25,27.75,128.6699981689453,24.979999542236328,153.9499969482422,194.6699981689453,26.549999237060547,89.52999877929688,89.86000061035156,61.900001525878906,15.869999885559082,135.31,146.74,47.17,16.15
2020-02-14,379.6700134277344,139.99000549316406,92.47000122070312,66.55000305175781,15.890000343322754,167.47000122070312,189.9499969482422,64.8499984741211,18.530000686645508,47.029998779296875,89.41000366210938,25.059999465942383,72.61000061035156,91.87999725341797,76.58999633789062,22.959999084472656,197.77999877929688,97.55999755859375,30.5,49.02000045776367,17.75,60.970001220703125,356.1600036621094,314.42999267578125,147.64999389648438,21.299999237060547,127.1500015258789,62.849998474121094,18.65999984741211,122.98999786376953,92.44000244140625,87.9800033569336,242.38999938964844,61.349998474121094,531.219970703125,50.040000915527344,81.86000061035156,154.4199981689453,28.170000076293945,127.73999786376953,25.1299991607666,158.8699951171875,196.99000549316406,27.989999771118164,90.4800033569336,90.94999694824219,62.11000061035156,15.970000267028809,137.03,148.26,47.57,16.12
2020-02-18,378.8500061035156,141.00999450683594,91.94000244140625,68.0,16.239999771118164,169.4199981689453,191.08999633789062,66.04000091552734,18.389999389648438,47.08000183105469,90.76000213623047,24.770000457763672,73.19999694824219,91.83999633789062,76.94000244140625,22.799999237060547,196.97000122070312,96.80999755859375,30.799999237060547,49.2400016784668,17.5,60.720001220703125,357.489990234375,318.1600036621094,147.4499969482422,21.65999984741211,126.4800033569336,62.900001525878906,19.020000457763672,122.2699966430664,92.86000061035156,87.29000091552734,245.72999572753906,61.65999984741211,536.4099731445312,50.84000015258789,82.41999816894531,153.8800048828125,27.899999618530273,128.13999938964844,25.170000076293945,162.02000427246094,199.3800048828125,27.579999923706055,90.23999786376953,96.38999938964844,63.86000061035156,16.149999618530273,137.9,151.74,47.76,16.45
2020-02-19,383.2799987792969,144.89999389648438,90.18000030517578,68.73999786376953,16.209999084472656,173.0399932861328,192.8699951171875,66.02999877929688,18.31999969482422,47.29999923706055,91.48999786376953,25.0,73.55999755859375,104.20999908447266,78.75,24.200000762939453,198.52999877929688,97.33999633789062,30.540000915527344,48.400001525878906,18.010000228881836,60.68000030517578,357.7200012207031,324.4800109863281,149.72999572753906,21.989999771118164,124.4800033569336,62.900001525878906,20.059999465942383,123.91000366210938,93.41000366210938,87.79000091552734,248.7899932861328,61.95000076293945,543.2100219726562,50.290000915527344,85.23999786376953,152.0500030517578,28.350000381469727,128.05999755859375,24.510000228881836,163.88999938964844,197.5800018310547,27.5,90.0199966430664,103.93000030517578,65.16999816894531,16.06999969482422,139.5,155.24,48.79,16.92
2020-02-20,378.9599914550781,143.05999755859375,89.11000061035156,68.41999816894531,16.200000762939453,169.14999389648438,193.36000061035156,63.380001068115234,18.71500015258789,45.9900016784668,90.30999755859375,25.424999237060547,73.58000183105469,101.04000091552734,75.12000274658203,24.59000015258789,194.24000549316406,96.22000122070312,30.68000030517578,48.16999816894531,20.299999237060547,60.84000015258789,352.94000244140625,310.3299865722656,145.0500030517578,21.299999237060547,125.70999908447266,61.59000015258789,20.34000015258789,122.43000030517578,94.31999969482422,89.12000274658203,243.75999450683594,61.97999954223633,535.5800170898438,49.599998474121094,85.69999694824219,148.97999572753906,28.40999984741211,126.70999908447266,24.989999771118164,164.97000122070312,190.55999755859375,27.489999771118164,88.30000305175781,105.29000091552734,65.18000030517578,16.079999923706055,138.55,141.68,48.31,16.41
2020-02-21,372.95001220703125,133.8000030517578,87.70999908447266,65.37000274658203,16.170000076293945,163.30999755859375,189.5,60.93000030517578,22.450000762939453,45.68000030517578,88.7300033569336,26.860000610351562,72.77999877929688,104.97000122070312,73.25,23.110000610351562,185.92999267578125,95.18000030517578,30.43000030517578,46.400001525878906,21.020000457763672,59.47999954223633,344.4800109863281,300.3900146484375,138.72000122070312,21.040000915527344,123.9000015258789,59.869998931884766,19.18000030517578,119.48999786376953,91.63999938964844,84.7699966430664,235.91000366210938,61.18000030517578,520.6599731445312,48.75,83.48999786376953,145.92999267578125,27.31999969482422,123.2699966430664,24.684999465942383,159.82000732421875,183.86000061035156,28.440000534057617,86.25,101.76000213623047,54.5099983215332,15.630000114440918,133.59,137.31,47.11,16.45
2020-02-24,357.4100036621094,128.2899932861328,84.8499984741211,64.70999908447266,15.880000114440918,160.2899932861328,185.94000244140625,58.08000183105469,21.760000228881836,44.959999084472656,86.37000274658203,26.959999084472656,71.30000305175781,101.79000091552734,72.29000091552734,20.649999618530273,180.10000610351562,93.2699966430664,29.3799991607666,45.470001220703125,19.809999465942383,58.58000183105469,333.55999755859375,295.7699890136719,136.52999877929688,20.600000381469727,121.22000122070312,57.970001220703125,18.950000762939453,116.44000244140625,88.86000061035156,83.23999786376953,234.14999389648438,60.81999969482422,490.9599914550781,46.689998626708984,80.20999908447266,147.11000061035156,27.190000534057617,117.94000244140625,25.219999313354492,154.02000427246094,177.11000061035156,27.920000076293945,84.2300033569336,105.01000213623047,51.86000061035156,14.989999771118164,126.8,131.5,44.88,15.98
2020-02-25,347.79998779296875,125.04000091552734,84.0,63.4900016784668,15.039999961853027,159.89999389648438,181.27000427246094,57.7400016784668,20.639999389648438,44.310001373291016,83.05999755859375,24.5,66.1500015258789,104.4000015258789,74.02999877929688,20.510000228881836,178.8300018310547,90.20999908447266,27.389999389648438,43.91999816894531,20.290000915527344,56.84000015258789,329.7200012207031,288.9100036621094,133.66000366210938,19.81999969482422,116.4800033569336,57.0099983215332,18.450000762939453,109.66000366210938,83.91999816894531,79.79000091552734,235.30999755859375,58.93000030517578,466.4599914550781,45.97999954223633,77.05000305175781,144.47999572753906,26.219999313354492,112.30999755859375,24.1299991607666,149.9600067138672,175.47000122070312,26.75,81.30999755859375,107.08000183105469,50.40999984741211,14.050000190734863,122.97,133.69,44.95,15.68
2020-02-26,351.3399963378906,123.72000122070312,86.61000061035156,64.23999786376953,14.979999542236328,160.16000366210938,178.8699951171875,58.459999084472656,19.8799991607666,43.90999984741211,83.58000183105469,23.649999618530273,63.79999923706055,106.66999816894531,74.05000305175781,20.690000534057617,180.85000610351562,90.13999938964844,26.149999618530273,43.02000045776367,22.110000610351562,53.81999969482422,334.2699890136719,291.9200134277344,135.27000427246094,19.5,116.13999938964844,58.09000015258789,18.40999984741211,109.11000061035156,81.87999725341797,77.95999908447266,234.92999267578125,58.09000015258789,471.17999267578125,48.689998626708984,76.58999633789062,146.5,25.68000030517578,112.95999908447266,22.969999313354492,147.49000549316406,175.36000061035156,26.610000610351562,83.04000091552734,106.87999725341797,51.33000183105469,13.760000228881836,127.82,132.5,44.97,15.53
2020-02-27,337.5199890136719,118.44000244140625,82.97000122070312,62.150001525878906,15.279999732971191,153.69000244140625,172.14999389648438,57.5,19.329999923706055,45.88999938964844,83.20999908447266,21.989999771118164,71.93000030517578,105.54000091552734,71.75,19.610000610351562,175.66000366210938,87.30999755859375,25.34000015258789,40.959999084472656,21.940000534057617,54.900001525878906,320.1000061035156,281.3599853515625,129.55999755859375,18.59000015258789,111.08999633789062,44.029998779296875,17.25,107.83999633789062,77.68000030517578,75.86000061035156,235.72999572753906,55.04999923706055,438.3699951171875,45.54999923706055,79.30999755859375,143.0,24.709999084472656,110.91000366210938,22.969999313354492,144.42999267578125,171.1999969482422,26.219999313354492,79.91000366210938,113.55000305175781,49.7400016784668,13.149999618530273,123.83,134.12,43.25,15.04
2020-02-28,345.1199951171875,122.97000122070312,84.75,62.56999969482422,16.75,149.75,170.39999389648438,59.63999938964844,19.559999465942383,45.150001525878906,86.30999755859375,21.09000015258789,73.86000061035156,105.66000366210938,73.02999877929688,19.799999237060547,179.4499969482422,87.33000183105469,24.809999465942383,39.59000015258789,21.299999237060547,56.2599983215332,326.0899963378906,282.6499938964844,129.52000427246094,20.600000381469727,106.6500015258789,44.939998626708984,17.829999923706055,107.98999786376953,80.18000030517578,75.37000274658203,235.75,64.0999984741211,463.30999755859375,46.29999923706055,83.33000183105469,144.9600067138672,24.520000457763672,112.63999938964844,23.510000228881836,141.97000122070312,173.25,27.020000457763672,79.30999755859375,105.0,51.9900016784668,13.239999771118164,128.06,134.03,42.74,15.16
2020-03-02,360.2799987792969,123.44000244140625,84.98999786376953,63.02000045776367,16.889999389648438,158.52999877929688,176.75999450683594,59.130001068115234,19.290000915527344,44.790000915527344,87.95999908447266,20.3799991607666,72.73999786376953,111.86000061035156,72.87999725341797,20.489999771118164,180.61000061035156,89.41000366210938,25.200000762939453,40.099998474121094,22.079999923706055,54.91999816894531,344.3999938964844,291.9599914550781,133.22000122070312,20.8700008392334,113.29000091552734,45.560001373291016,17.260000228881836,112.86000061035156,82.02999877929688,77.94000244140625,239.88999938964844,62.18000030517578,488.3999938964844,47.18000030517578,80.66999816894531,146.82000732421875,24.93000030517578,111.4800033569336,24.700000762939453,144.0500030517578,172.88999938964844,27.209999084472656,78.47000122070312,113.11000061035156,52.779998779296875,12.979999542236328,133.43,138.72,42.56,15.07
2020-03-03,348.3399963378906,119.98999786376953,80.88999938964844,61.349998474121094,15.890000343322754,150.5,169.3699951171875,56.47999954223633,19.315000534057617,43.400001525878906,85.80999755859375,19.81999969482422,67.66999816894531,108.30999755859375,72.5,20.25,175.22000122070312,88.73999786376953,24.40999984741211,38.15999984741211,22.079999923706055,53.7400016784668,329.6300048828125,282.29998779296875,129.50999450683594,20.020000457763672,107.4000015258789,43.459999084472656,16.799999237060547,109.76000213623047,79.94999694824219,75.97000122070312,225.89999389648438,61.310001373291016,476.94000244140625,45.52000045776367,78.83999633789062,145.72000122070312,24.200000762939453,105.37000274658203,25.5,141.5,166.55999755859375,26.920000076293945,71.05999755859375,117.47000122070312,51.33000183105469,12.319999694824219,131.34,135.13,42.08,14.5
2020-03-04,363.8500061035156,120.0199966430664,84.12999725341797,64.61000061035156,15.380000114440918,153.3800048828125,175.69000244140625,57.20000076293945,19.799999237060547,44.525001525878906,89.55000305175781,20.139999389648438,71.83000183105469,109.30000305175781,73.20999908447266,21.450000762939453,179.52999877929688,89.69000244140625,25.190000534057617,39.61000061035156,22.700000762939453,55.290000915527344,345.07000732421875,293.69000244140625,136.66000366210938,20.700000762939453,113.51000213623047,44.0099983215332,17.309999465942383,115.30000305175781,83.16000366210938,76.19999694824219,232.83999633789062,64.37999725341797,512.22998046875,47.400001525878906,79.26000213623047,153.47000122070312,24.670000076293945,104.87999725341797,28.280000686645508,144.1199951171875,170.88999938964844,27.799999237060547,73.2300033569336,116.80000305175781,53.38999938964844,12.520000457763672,131.34,140.71,43.86,15.29
2020-03-05,351.0299987792969,120.47000122070312,80.51000213623047,63.56999969482422,15.010000228881836,151.9199981689453,169.60000610351562,55.91999816894531,19.34000015258789,47.29999923706055,88.5999984741211,18.979999542236328,71.86000061035156,106.83000183105469,73.56999969482422,22.09000015258789,172.22000122070312,88.98999786376953,23.639999389648438,38.470001220703125,23.350000381469727,54.849998474121094,329.3299865722656,282.260009765625,132.25999450683594,19.790000915527344,113.4000015258789,42.2400016784668,16.209999084472656,112.18000030517578,82.2300033569336,72.62000274658203,225.52000427246094,64.25,498.2200012207031,46.5099983215332,76.31999969482422,152.2100067138672,23.5,105.98999786376953,27.860000610351562,146.5399932861328,165.30999755859375,28.389999389648438,73.0,125.0,53.36000061035156,12.050000190734863,129.05,137.18,43.9,15.04
2020-03-06,336.7699890136719,117.33999633789062,77.0999984741211,62.72999954223633,14.680000305175781,141.3300018310547,164.0800018310547,51.959999084472656,19.40999984741211,43.619998931884766,84.0199966430664,17.770000457763672,64.13999938964844,109.27999877929688,71.97000122070312,18.989999771118164,165.63999938964844,91.16999816894531,22.479999542236328,36.439998626708984,22.770000457763672,53.7400016784668,317.239990234375,267.7099914550781,124.73999786376953,19.59000015258789,111.75,40.869998931884766,15.479999542236328,110.88999938964844,78.87000274658203,69.75,216.63999938964844,63.75,472.07000732421875,43.209999084472656,73.08999633789062,144.36000061035156,23.68000030517578,101.7699966430664,26.81999969482422,146.25,158.67999267578125,26.420000076293945,71.55000305175781,114.31999969482422,49.38999938964844,11.489999771118164,125.97,136.25,41.16,14.41
2020-03-09,305.7900085449219,106.54000091552734,71.54000091552734,60.279998779296875,13.039999961853027,124.31999969482422,151.2100067138672,45.7400016784668,17.670000076293945,38.81999969482422,77.62999725341797,14.970000267028809,55.86000061035156,108.36000061035156,66.1500015258789,17.1299991607666,142.6199951171875,85.98999786376953,18.290000915527344,33.33000183105469,20.739999771118164,49.72999954223633,292.0899963378906,240.83999633789062,115.91000366210938,18.15999984741211,103.25,37.61000061035156,13.779999732971191,101.62999725341797,75.01000213623047,67.69999694824219,209.47999572753906,59.4900016784668,418.32000732421875,39.310001373291016,65.7300033569336,133.0,21.350000381469727,93.05000305175781,27.1200008392334,139.0,142.97000122070312,24.889999389648438,68.0199966430664,113.75,43.939998626708984,10.3100004196167,114.85,116.09,37.05,13.27
2020-03-10,332.3800048828125,107.22000122070312,77.94000244140625,61.56999969482422,12.930000305175781,128.8000030517578,161.33999633789062,46.90999984741211,17.389999389648438,38.0,79.81999969482422,14.25,58.0,109.94000244140625,70.0,17.290000915527344,147.57000732421875,84.41999816894531,21.290000915527344,33.93000030517578,21.110000610351562,48.959999084472656,312.79998779296875,239.47999572753906,116.02999877929688,19.270000457763672,108.95999908447266,40.68000030517578,14.0600004196167,109.73999786376953,77.41000366210938,69.23999786376953,213.8699951171875,60.20000076293945,450.3399963378906,42.130001068115234,67.23999786376953,135.58999633789062,21.610000610351562,92.61000061035156,28.600000381469727,146.30999755859375,150.30999755859375,25.059999465942383,72.20999908447266,108.48999786376953,47.0099983215332,11.029999732971191,119.21,120.9,36.34,13.91
2020-03-11,315.2300109863281,98.0999984741211,73.1500015258789,61.65999984741211,12.229999542236328,120.87000274658203,154.57000732421875,42.849998474121094,16.15999984741211,35.560001373291016,75.0,12.289999961853027,52.79999923706055,111.04000091552734,67.26000213623047,15.270000457763672,137.30999755859375,82.12000274658203,19.850000381469727,32.040000915527344,20.59000015258789,45.04999923706055,290.6300048828125,220.67999267578125,108.94000244140625,18.100000381469727,103.29000091552734,38.47999954223633,12.680000305175781,103.9000015258789,74.4000015258789,67.30000305175781,199.33999633789062,58.25,422.30999755859375,38.400001525878906,62.439998626708984,130.5399932861328,20.510000228881836,87.01000213623047,26.75,144.3800048828125,142.02999877929688,23.6200008392334,65.69999694824219,110.30000305175781,42.880001068115234,9.960000038146973,114.75,114.98,33.89,13.4
2020-03-12,285.0,86.01000213623047,67.2699966430664,54.22999954223633,10.600000381469727,115.72000122070312,140.58999633789062,37.81999969482422,15.6899995803833,33.099998474121094,68.68000030517578,11.520000457763672,48.7599983215332,103.05000305175781,60.95000076293945,13.140000343322754,122.51000213623047,74.73999786376953,19.049999237060547,29.700000762939453,19.15999984741211,38.83000183105469,262.1199951171875,191.97999572753906,96.5999984741211,15.770000457763672,91.12000274658203,35.439998626708984,12.069999694824219,96.95999908447266,68.0,64.01000213623047,179.80999755859375,52.95000076293945,377.7799987792969,36.810001373291016,53.56999969482422,125.01000213623047,18.760000228881836,78.33999633789062,24.950000762939453,133.2100067138672,131.2899932861328,21.350000381469727,60.16999816894531,109.47000122070312,39.5,8.59000015258789,106.08,104.72,30.33,11.88
2020-03-13,335.5,101.11000061035156,72.97000122070312,53.11000061035156,10.930000305175781,120.83999633789062,147.77999877929688,39.54999923706055,18.350000381469727,35.2599983215332,77.31999969482422,12.710000038146973,51.52000045776367,107.9000015258789,63.349998474121094,14.0,134.4199981689453,76.33000183105469,20.40999984741211,33.5,19.059999465942383,44.2400016784668,287.6700134277344,226.6199951171875,105.08999633789062,15.609999656677246,97.48999786376953,38.560001373291016,11.569999694824219,110.1500015258789,71.3499984741211,65.05000305175781,174.60000610351562,54.79999923706055,390.8999938964844,38.310001373291016,57.77000045776367,127.94000244140625,20.440000534057617,79.98999786376953,24.90999984741211,138.39999389648438,137.75999450683594,19.59000015258789,64.43000030517578,107.47000122070312,41.88999938964844,7.690000057220459,107.29,112.5,29.8,13.36
2020-03-16,286.0299987792969,84.98999786376953,66.23999786376953,42.7400016784668,9.119999885559082,109.56999969482422,124.30000305175781,33.0099983215332,16.079999923706055,28.959999084472656,72.30999755859375,9.779999732971191,45.369998931884766,107.47000122070312,56.45000076293945,11.130000114440918,110.01000213623047,68.81999969482422,19.84000015258789,28.860000610351562,15.920000076293945,37.72999954223633,265.42999267578125,196.27000427246094,90.51000213623047,12.869999885559082,101.04000091552734,30.010000228881836,9.149999618530273,92.72000122070312,69.55000305175781,50.630001068115234,138.9600067138672,47.849998474121094,322.2900085449219,32.04999923706055,41.27000045776367,120.56999969482422,17.280000686645508,71.69999694824219,19.75,120.93000030517578,120.19000244140625,17.040000915527344,54.7400016784668,107.86000061035156,41.81999969482422,7.190000057220459,96.08,88.0,25.66,11.78
2020-03-17,311.80999755859375,109.94000244140625,67.6500015258789,42.380001068115234,9.229999542236328,137.13999938964844,135.4199981689453,38.0099983215332,16.809999465942383,34.119998931884766,70.94000244140625,10.640000343322754,45.7599983215332,116.55999755859375,65.45999908447266,13.640000343322754,111.5199966430664,73.08000183105469,19.600000381469727,30.479999542236328,18.690000534057617,36.09000015258789,287.4200134277344,216.75,92.63999938964844,14.9399995803833,111.51000213623047,32.540000915527344,8.619999885559082,97.87000274658203,74.38999938964844,61.209999084472656,163.25,46.099998474121094,355.0899963378906,36.599998474121094,44.72999954223633,124.37999725341797,18.149999618530273,77.62000274658203,17.459999084472656,132.94000244140625,124.0199966430664,19.899999618530273,60.86000061035156,111.0999984741211,46.86000061035156,7.889999866485596,109.11,91.46,25.31,11.47
2020-03-18,294.6099853515625,85.81999969482422,58.189998626708984,44.0099983215332,9.640000343322754,134.88999938964844,132.24000549316406,38.630001068115234,16.520000457763672,32.08000183105469,76.61000061035156,9.010000228881836,44.119998931884766,114.69000244140625,62.77000045776367,14.380000114440918,104.70999908447266,65.80000305175781,19.479999542236328,27.549999237060547,19.700000762939453,36.81999969482422,278.1600036621094,192.38999938964844,78.38999938964844,14.920000076293945,99.91999816894531,28.170000076293945,7.659999847412109,91.45999908447266,76.3499984741211,52.43000030517578,164.6199951171875,42.689998626708984,336.8299865722656,37.65999984741211,39.5,122.02999877929688,16.790000915527344,74.08999633789062,12.510000228881836,140.52999877929688,113.87000274658203,18.010000228881836,58.84000015258789,118.70999908447266,50.16999816894531,8.720000267028809,102.06,81.5,24.82,10.06
2020-03-19,307.510009765625,92.08999633789062,57.88999938964844,48.97999954223633,11.649999618530273,142.3800048828125,139.4600067138672,41.7400016784668,17.81999969482422,33.099998474121094,75.87999725341797,9.15999984741211,48.16999816894531,103.51000213623047,62.79999923706055,17.0,117.0,66.0,19.93000030517578,29.229999542236328,20.690000534057617,40.41999816894531,277.6600036621094,197.5500030517578,81.87999725341797,18.43000030517578,98.87000274658203,29.889999389648438,9.40999984741211,93.69000244140625,78.83999633789062,56.459999084472656,184.22999572753906,44.630001068115234,332.5,40.369998931884766,40.0,121.55999755859375,18.18000030517578,82.5,15.739999771118164,147.63999938964844,126.73999786376953,21.010000228881836,62.189998626708984,123.7699966430664,51.80500030517578,8.399999618530273,113.95,102.14,29.6,10.6
2020-03-20,295.3399963378906,87.5999984741211,62.0,46.439998626708984,12.479999542236328,141.4199981689453,139.35000610351562,49.0099983215332,17.59000015258789,33.380001068115234,79.69999694824219,8.3100004196167,49.959999084472656,100.2699966430664,62.59000015258789,17.709999084472656,117.79000091552734,64.25,21.049999237060547,30.84000015258789,21.719999313354492,38.220001220703125,254.6999969482422,192.80999755859375,82.25,19.06999969482422,95.63999938964844,28.290000915527344,9.050000190734863,86.68000030517578,81.25,55.310001373291016,183.86000061035156,44.869998931884766,346.05999755859375,42.099998474121094,38.09000015258789,125.9000015258789,18.280000686645508,84.13999938964844,15.979999542236328,133.4499969482422,125.0,22.229999542236328,56.880001068115234,130.5500030517578,53.63999938964844,8.100000381469727,115.45,97.22,29.34,10.83
2020-03-23,307.2699890136719,89.8499984741211,66.66000366210938,49.54999923706055,12.029999732971191,136.38999938964844,140.52000427246094,51.45000076293945,17.110000610351562,32.900001525878906,83.5,7.980000019073486,48.72999954223633,115.97000122070312,66.79000091552734,17.979999542236328,108.0199966430664,63.029998779296875,21.25,31.920000076293945,21.40999984741211,40.63999938964844,255.32000732421875,178.94000244140625,79.4000015258789,17.790000915527344,100.2300033569336,28.3799991607666,8.699999809265137,85.26000213623047,78.05999755859375,51.849998474121094,191.58999633789062,45.779998779296875,375.3900146484375,42.68000030517578,40.0099983215332,128.08999633789062,18.700000762939453,89.73999786376953,16.6200008392334,132.0,127.1500015258789,24.75,55.7400016784668,159.55999755859375,58.029998779296875,8.010000228881836,118.4,94.48,31.34,10.01
2020-03-24,310.0,103.83000183105469,74.12999725341797,50.189998626708984,12.289999961853027,139.75999450683594,153.63999938964844,57.33000183105469,18.799999237060547,34.4900016784668,85.0,9.390000343322754,55.0,122.58999633789062,71.0,18.68000030517578,129.36000061035156,66.45999908447266,22.059999465942383,33.849998474121094,22.40999984741211,46.72999954223633,272.0,201.6199951171875,87.37000274658203,18.030000686645508,105.25,31.610000610351562,11.010000228881836,97.29000091552734,81.55000305175781,56.599998474121094,205.0800018310547,50.209999084472656,430.0,43.52000045776367,46.310001373291016,138.1999969482422,20.1299991607666,97.52999877929688,18.790000915527344,144.92999267578125,132.38999938964844,25.950000762939453,64.48999786376953,135.17999267578125,62.13999938964844,8.5,123.97,107.1,34.91,11.17
2020-03-25,305.9100036621094,101.05500030517578,74.76000213623047,47.16999816894531,12.770000457763672,131.1199951171875,147.05999755859375,55.779998779296875,18.40999984741211,33.689998626708984,81.37000274658203,9.760000228881836,56.279998779296875,110.66999816894531,69.86000061035156,17.950000762939453,136.36000061035156,65.87999725341797,23.3700008392334,33.77000045776367,21.65999984741211,46.95000076293945,264.6700134277344,210.64999389648438,92.54000091552734,18.350000381469727,99.80999755859375,34.0,11.279999732971191,95.70999908447266,80.87999725341797,57.790000915527344,190.36000061035156,52.06999969482422,446.6000061035156,43.34000015258789,52.38999938964844,139.16000366210938,21.700000762939453,96.83000183105469,18.530000686645508,134.30999755859375,135.72999572753906,25.8799991607666,64.58000183105469,138.11000061035156,59.130001068115234,8.449999809265137,117.77,114.76,33.5,10.89
2020-03-26,322.6700134277344,106.0,78.55999755859375,54.650001525878906,13.850000381469727,142.72000122070312,154.72999572753906,58.63999938964844,18.920000076293945,34.29999923706055,83.66000366210938,10.489999771118164,56.40999984741211,112.69999694824219,74.23999786376953,18.059999465942383,141.88999938964844,69.70999908447266,22.84000015258789,35.38999938964844,21.600000381469727,49.720001220703125,294.7300109863281,229.2100067138672,96.72000122070312,18.399999618530273,102.2699966430664,35.720001220703125,13.0,100.62999725341797,87.58000183105469,62.68000030517578,217.8000030517578,53.36000061035156,447.4100036621094,46.33000183105469,56.029998779296875,148.1999969482422,22.739999771118164,100.69000244140625,21.760000228881836,147.08999633789062,145.27999877929688,28.479999542236328,67.01000213623047,141.14999389648438,60.54999923706055,9.020000457763672,123.3,119.8,35.49,11.32
2020-03-27,305.8299865722656,104.95999908447266,79.48999786376953,52.81999969482422,13.420000076293945,146.47000122070312,146.0,58.790000915527344,17.75,34.54999923706055,82.56999969482422,10.529999732971191,53.619998931884766,108.94999694824219,73.52999877929688,18.209999084472656,131.72999572753906,67.26000213623047,21.729999542236328,35.75,21.959999084472656,49.369998931884766,274.0,208.94000244140625,92.04000091552734,16.299999237060547,104.97000122070312,32.779998779296875,12.600000381469727,93.4800033569336,84.13999938964844,58.90999984741211,238.97000122070312,53.880001068115234,421.6199951171875,43.5,53.34000015258789,142.25,22.399999618530273,96.62999725341797,21.979999542236328,145.5500030517578,136.2100067138672,28.579999923706055,64.8499984741211,151.6999969482422,58.630001068115234,8.09000015258789,121.05,106.26,35.31,10.98
2020-03-30,318.3900146484375,107.5999984741211,80.33999633789062,53.16999816894531,14.0,150.52000427246094,149.85000610351562,57.720001220703125,18.149999618530273,34.75,88.13999938964844,10.260000228881836,55.689998626708984,112.69000244140625,76.27999877929688,18.8700008392334,139.27999877929688,75.41000366210938,20.6200008392334,35.5099983215332,23.889999389648438,47.34000015258789,286.3900146484375,213.1199951171875,91.25,17.030000686645508,107.6500015258789,32.959999084472656,11.510000228881836,97.02999877929688,87.66000366210938,61.439998626708984,228.02999877929688,54.08000183105469,430.3800048828125,43.970001220703125,55.0,141.16000366210938,22.399999618530273,97.0,22.709999084472656,157.94000244140625,137.3000030517578,28.209999084472656,65.36000061035156,150.8800048828125,58.84000015258789,8.430000305175781,124.94,104.48,34.17,10.71
2020-03-31,318.239990234375,110.94999694824219,74.5999984741211,52.61000061035156,14.039999961853027,139.72999572753906,143.97999572753906,55.68000030517578,18.100000381469727,35.97999954223633,92.4000015258789,9.9399995803833,55.810001373291016,106.36000061035156,76.45999908447266,18.979999542236328,133.19000244140625,74.8499984741211,20.040000915527344,35.29999923706055,23.479999542236328,46.2400016784668,286.5799865722656,202.00999450683594,88.31999969482422,17.280000686645508,102.58999633789062,30.260000228881836,10.979999542236328,95.73999786376953,86.98999786376953,59.060001373291016,211.91000366210938,52.93000030517578,416.92999267578125,41.5099983215332,52.380001068115234,137.25999450683594,21.860000610351562,89.48999786376953,21.219999313354492,156.3699951171875,130.22000122070312,26.84000015258789,64.01000213623047,146.1199951171875,60.86000061035156,8.050000190734863,122.26,100.82,32.33,10.19
2020-04-01,301.2099914550781,96.81999969482422,66.26000213623047,49.939998626708984,14.170000076293945,131.58999633789062,134.05999755859375,54.58000183105469,17.8799991607666,34.880001068115234,92.08999633789062,9.229999542236328,51.689998626708984,103.01000213623047,73.73999786376953,17.610000610351562,125.0999984741211,68.06999969482422,17.90999984741211,33.380001068115234,24.1200008392334,44.91999816894531,273.07000732421875,187.44000244140625,82.33000183105469,16.040000915527344,100.83999633789062,28.389999389648438,10.130000114440918,91.37999725341797,82.80000305175781,54.619998931884766,210.6699981689453,48.7599983215332,384.6700134277344,40.529998779296875,46.810001373291016,134.0500030517578,20.459999084472656,84.93000030517578,18.549999237060547,153.50999450683594,126.27999877929688,25.75,62.4900016784668,137.0,61.9900016784668,7.820000171661377,119.57,92.62,30.92,9.64
2020-04-02,303.9599914550781,90.22000122070312,65.56999969482422,49.79999923706055,14.710000038146973,132.6999969482422,134.32000732421875,56.689998626708984,18.229999542236328,34.599998474121094,84.04000091552734,8.770000457763672,48.59000015258789,103.27999877929688,75.55999755859375,18.049999237060547,116.86000061035156,69.48999786376953,17.25,32.380001068115234,23.059999465942383,45.38999938964844,259.0,181.25999450683594,79.9000015258789,15.890000343322754,101.55000305175781,28.200000762939453,9.5,93.5199966430664,85.54000091552734,55.95000076293945,220.02999877929688,51.380001068115234,346.29998779296875,39.34000015258789,45.880001068115234,129.00999450683594,20.469999313354492,83.31999969482422,19.290000915527344,156.16000366210938,122.37000274658203,24.260000228881836,58.939998626708984,121.93000030517578,61.18000030517578,8.25,115.99,93.85,31.06,9.09
2020-04-03,293.6099853515625,87.16999816894531,63.630001068115234,49.5,14.430000305175781,126.22000122070312,134.30999755859375,57.81999969482422,17.959999084472656,34.689998626708984,79.0,8.539999961853027,47.38999938964844,104.4800033569336,73.9000015258789,19.450000762939453,113.26000213623047,68.36000061035156,16.829999923706055,30.59000015258789,24.079999923706055,44.4900016784668,249.57000732421875,165.00999450683594,74.0199966430664,15.109999656677246,97.88999938964844,28.959999084472656,9.829999923706055,92.38999938964844,87.88999938964844,56.209999084472656,223.75999450683594,49.970001220703125,357.6499938964844,39.400001525878906,43.720001220703125,129.9600067138672,20.030000686645508,80.69000244140625,17.8799991607666,150.11000061035156,116.08000183105469,24.260000228881836,57.84000015258789,128.1999969482422,63.400001525878906,8.229999542236328,118.94,94.29,30.83,8.83
2020-04-06,319.1300048828125,91.80999755859375,71.0,52.0,15.34000015258789,140.6300048828125,147.5500030517578,59.06999969482422,18.059999465942383,36.279998779296875,90.1500015258789,9.350000381469727,52.59000015258789,106.33999633789062,77.97000122070312,20.579999923706055,122.47000122070312,71.3499984741211,17.989999771118164,32.25,23.639999389648438,47.189998626708984,269.95001220703125,181.85000610351562,82.37000274658203,17.260000228881836,110.12000274658203,32.93000030517578,11.050000190734863,101.66999816894531,91.12999725341797,61.59000015258789,223.10000610351562,53.400001525878906,392.6499938964844,44.52000045776367,50.41999816894531,136.86000061035156,21.510000228881836,86.66000366210938,19.899999618530273,156.80999755859375,130.30999755859375,24.309999465942383,61.08000183105469,122.94000244140625,63.310001373291016,8.779999732971191,128.12,103.58,33.08,10.31
2020-04-07,308.92999267578125,93.47000122070312,70.81999969482422,51.5099983215332,14.710000038146973,130.75999450683594,145.07000732421875,59.599998474121094,17.700000762939453,35.900001525878906,87.97000122070312,9.600000381469727,51.7599983215332,97.8499984741211,76.77999877929688,19.84000015258789,127.37000274658203,70.0199966430664,18.469999313354492,32.099998474121094,22.799999237060547,45.63999938964844,262.3500061035156,186.02000427246094,86.16999816894531,16.6299991607666,108.05000305175781,32.91999816894531,11.109999656677246,100.27999877929688,89.43000030517578,59.77000045776367,194.99000549316406,52.41999816894531,378.5400085449219,43.470001220703125,50.310001373291016,132.52000427246094,20.559999465942383,87.22000122070312,20.450000762939453,154.25999450683594,131.8000030517578,23.479999542236328,63.380001068115234,113.75,62.36000061035156,8.449999809265137,125.54,106.01,32.95,10.37
2020-04-08,317.17999267578125,100.81999969482422,75.5,53.529998779296875,15.130000114440918,136.3800048828125,151.1199951171875,60.31999969482422,18.290000915527344,37.150001525878906,88.37000274658203,10.75,55.720001220703125,100.69000244140625,79.80000305175781,20.889999389648438,139.52000427246094,73.47000122070312,19.350000381469727,32.529998779296875,22.84000015258789,50.40999984741211,274.04998779296875,202.5800018310547,93.7300033569336,18.1299991607666,114.33999633789062,35.689998626708984,11.520000457763672,105.05999755859375,95.5,64.05999755859375,217.52000427246094,54.369998931884766,414.510009765625,44.86000061035156,57.040000915527344,140.67999267578125,21.549999237060547,91.7300033569336,21.729999542236328,160.49000549316406,142.11000061035156,24.899999618530273,66.95999908447266,117.80999755859375,64.93000030517578,8.739999771118164,128.09,115.99,34.74,10.97
2020-04-09,318.70001220703125,98.51000213623047,73.72000122070312,54.41999816894531,15.430000305175781,135.5500030517578,154.5500030517578,58.150001525878906,18.059999465942383,36.95000076293945,90.62999725341797,11.720000267028809,54.0,98.05999755859375,78.3499984741211,20.75,141.89999389648438,74.69000244140625,20.0,33.09000015258789,21.18000030517578,51.52000045776367,278.05999755859375,221.99000549316406,101.01000213623047,18.389999389648438,116.69000244140625,35.77000045776367,12.34000015258789,105.83999633789062,100.69999694824219,66.33999633789062,205.13999938964844,56.150001525878906,417.739990234375,44.630001068115234,59.209999084472656,137.9499969482422,22.280000686645508,95.33999633789062,22.510000228881836,162.11000061035156,145.41000366210938,24.700000762939453,68.70999908447266,124.51000213623047,62.59000015258789,9.119999885559082,130.96,114.46,34.54,11.67
2020-04-13,320.6499938964844,95.31999969482422,75.54000091552734,54.86000061035156,15.399999618530273,137.5,152.5,58.77000045776367,18.530000686645508,37.869998931884766,93.97000122070312,14.050000190734863,53.93000030517578,103.36000061035156,79.95999908447266,22.09000015258789,142.58999633789062,73.23999786376953,19.440000534057617,32.869998931884766,23.6200008392334,50.68000030517578,283.55999755859375,216.35000610351562,95.08999633789062,19.1200008392334,114.86000061035156,35.86000061035156,12.130000114440918,105.9800033569336,104.61000061035156,62.95000076293945,210.97999572753906,55.650001525878906,447.45001220703125,43.61000061035156,59.41999816894531,135.3000030517578,22.299999237060547,95.88999938964844,22.549999237060547,162.85000610351562,141.17999267578125,24.959999084472656,67.9800033569336,135.9199981689453,62.16999816894531,9.470000267028809,134.26,120.71,32.46,12.28
2020-04-14,340.7699890136719,100.56999969482422,78.38999938964844,56.59000015258789,15.369999885559082,157.0,157.7100067138672,60.88999938964844,19.0,38.90999984741211,98.43000030517578,15.550000190734863,56.75,106.83999633789062,83.01000213623047,22.110000610351562,143.02000427246094,76.0,20.520000457763672,34.540000915527344,22.90999984741211,51.810001373291016,302.0899963378906,228.50999450683594,99.9800033569336,19.200000762939453,115.54000091552734,38.06999969482422,13.140000343322754,109.78500366210938,107.23999786376953,68.02999877929688,222.02999877929688,58.09000015258789,496.05999755859375,46.689998626708984,62.40999984741211,144.57000732421875,22.979999542236328,98.79000091552734,24.260000228881836,173.58999633789062,149.4499969482422,25.31999969482422,69.72000122070312,141.88999938964844,66.4800033569336,9.619999885559082,139.84,123.34,32.98,12.22
2020-04-15,332.54998779296875,104.5,79.58999633789062,57.11000061035156,15.350000381469727,158.8000030517578,155.6300048828125,61.81999969482422,18.950000762939453,38.7400016784668,100.52999877929688,14.989999771118164,58.06999969482422,111.45999908447266,85.9800033569336,21.940000534057617,134.97999572753906,75.16999816894531,19.100000381469727,33.709999084472656,23.889999389648438,50.02000045776367,295.9200134277344,226.39999389648438,97.08000183105469,19.389999389648438,114.36000061035156,37.66999816894531,13.279999732971191,107.94999694824219,105.5,66.13999938964844,231.44000244140625,56.970001220703125,497.1700134277344,48.0099983215332,61.380001068115234,143.6300048828125,22.209999084472656,100.81999969482422,23.489999771118164,174.67999267578125,146.07000732421875,28.030000686645508,68.8499984741211,151.55999755859375,69.95999908447266,9.75,142.47,118.41,32.51,11.84
2020-04-16,342.70001220703125,101.2300033569336,78.04000091552734,57.88999938964844,15.399999618530273,163.6999969482422,157.05999755859375,63.45000076293945,18.735000610351562,39.63999938964844,100.68000030517578,14.529999732971191,58.5,118.19999694824219,90.88999938964844,22.969999313354492,136.02999877929688,73.91000366210938,20.079999923706055,35.58000183105469,25.420000076293945,48.5,291.94000244140625,206.7100067138672,87.3499984741211,19.719999313354492,118.4800033569336,35.380001068115234,13.34000015258789,108.30999755859375,105.80999755859375,66.47000122070312,232.97000122070312,57.88999938964844,526.4299926757812,49.959999084472656,57.31999969482422,146.50999450683594,22.40999984741211,103.62999725341797,22.6200008392334,174.22999572753906,142.5800018310547,29.3799991607666,68.88999938964844,150.25999450683594,70.37000274658203,10.380000114440918,147.43,122.9,32.28,11.79
2020-04-17,344.1099853515625,106.87000274658203,84.36000061035156,58.650001525878906,15.489999771118164,166.05999755859375,162.6199951171875,64.73999786376953,19.18000030517578,40.400001525878906,100.3499984741211,14.319999694824219,61.369998931884766,119.88999938964844,92.30000305175781,23.190000534057617,146.0800018310547,74.63999938964844,21.440000534057617,35.689998626708984,24.829999923706055,51.47999954223633,299.5899963378906,224.99000549316406,94.88500213623047,20.90999984741211,119.04000091552734,36.75,14.390000343322754,111.8499984741211,106.12999725341797,68.73999786376953,236.50999450683594,60.65999984741211,590.3900146484375,50.560001373291016,61.09000015258789,152.25,23.610000610351562,107.87999725341797,23.969999313354492,181.1199951171875,149.3000030517578,28.100000381469727,73.18000030517578,150.05999755859375,68.0,9.850000381469727,148.09,126.24,33.51,12.27
2020-04-20,344.8800048828125,106.0,85.31999969482422,58.439998626708984,16.010000228881836,166.52000427246094,162.75999450683594,68.43000030517578,20.34000015258789,40.9900016784668,101.80000305175781,14.289999961853027,61.279998779296875,124.70999908447266,94.76000213623047,23.979999542236328,142.41000366210938,73.20999908447266,21.040000915527344,36.25,26.18000030517578,50.04999923706055,302.4599914550781,222.36000061035156,92.72000122070312,21.6200008392334,118.87000274658203,37.5099983215332,13.729999542236328,112.16999816894531,107.83999633789062,69.43000030517578,253.11000061035156,60.66999816894531,629.9000244140625,53.68000030517578,61.060001373291016,152.6300048828125,23.270000457763672,108.37000274658203,22.170000076293945,184.39999389648438,150.89999389648438,29.25,72.37000274658203,148.99000549316406,70.51000213623047,9.850000381469727,152.6,130.63,33.58,11.95
2020-04-21,328.989990234375,99.38999938964844,81.4800033569336,55.939998626708984,15.800000190734863,157.4499969482422,150.55999755859375,66.06999969482422,19.65999984741211,40.0,99.33000183105469,14.210000038146973,58.560001373291016,117.30999755859375,93.66999816894531,22.149999618530273,134.83999633789062,71.47000122070312,20.56999969482422,35.029998779296875,23.940000534057617,47.58000183105469,288.7699890136719,208.1999969482422,85.3499984741211,21.1299991607666,116.54000091552734,36.4900016784668,13.1899995803833,107.54000091552734,106.91999816894531,65.52999877929688,234.5800018310547,59.31999969482422,585.0,51.56999969482422,57.400001525878906,148.1999969482422,22.84000015258789,105.0,21.309999465942383,176.24000549316406,140.14999389648438,26.459999084472656,66.66000366210938,143.27000427246094,65.18000030517578,9.260000228881836,148.41,126.43,32.03,11.3
2020-04-22,336.7699890136719,101.1500015258789,81.81999969482422,57.81999969482422,15.720000267028809,161.94000244140625,154.13999938964844,68.06999969482422,19.969999313354492,40.290000915527344,101.79000091552734,14.470000267028809,60.279998779296875,122.05000305175781,95.63999938964844,23.579999923706055,141.02999877929688,72.93000030517578,22.100000381469727,35.7400016784668,24.610000610351562,48.83000183105469,299.6099853515625,217.74000549316406,87.44000244140625,21.09000015258789,119.88999938964844,38.52000045776367,14.369999885559082,115.19000244140625,107.55000305175781,68.44000244140625,244.16000366210938,60.22999954223633,626.5599975585938,52.52000045776367,60.959999084472656,149.1999969482422,23.969999313354492,107.88999938964844,21.6299991607666,183.9499969482422,145.82000732421875,26.15999984741211,72.0999984741211,150.25,66.91000366210938,9.449999809265137,151.64,135.68,32.18,11.65
2020-04-23,335.3699951171875,103.52999877929688,82.3499984741211,58.720001220703125,15.920000076293945,159.8699951171875,151.72000122070312,68.91000366210938,19.834999084472656,40.150001525878906,102.19000244140625,14.6899995803833,59.9900016784668,120.27999877929688,96.05999755859375,22.510000228881836,139.77999877929688,75.2699966430664,21.739999771118164,36.59000015258789,23.729999542236328,50.33000183105469,297.30999755859375,211.6699981689453,86.91000366210938,21.450000762939453,118.76000213623047,38.86000061035156,14.319999694824219,115.23999786376953,106.12000274658203,68.51000213623047,238.91000366210938,59.439998626708984,620.489990234375,49.040000915527344,61.81999969482422,149.38999938964844,23.850000381469727,107.51000213623047,21.110000610351562,184.6999969482422,143.60000610351562,26.530000686645508,71.62000274658203,169.08999633789062,66.23999786376953,9.569999694824219,152.01,132.66,33.32,11.72
2020-04-24,344.1000061035156,104.88999938964844,85.11000061035156,58.68000030517578,15.880000114440918,163.27000427246094,153.97999572753906,72.0,20.204999923706055,41.810001373291016,105.06999969482422,16.389999389648438,61.150001525878906,119.26000213623047,97.29000091552734,22.950000762939453,145.35000610351562,75.11000061035156,21.639999389648438,36.900001525878906,23.280000686645508,51.7599983215332,302.94000244140625,211.8000030517578,88.43000030517578,21.459999084472656,121.19999694824219,39.18000030517578,14.770000457763672,120.18000030517578,109.26000213623047,70.9000015258789,238.72999572753906,60.650001525878906,643.1900024414062,50.9900016784668,62.0099983215332,152.32000732421875,24.229999542236328,109.94999694824219,21.940000534057617,187.6300048828125,144.9600067138672,26.059999465942383,73.4000015258789,158.8000030517578,67.5,9.65999984741211,155.35,134.36,34.13,11.99
2020-04-27,348.5,103.0199966430664,87.76000213623047,60.04999923706055,16.43000030517578,168.88999938964844,157.6300048828125,73.5999984741211,20.799999237060547,43.22999954223633,108.25,17.530000686645508,62.189998626708984,120.30000305175781,97.76000213623047,23.700000762939453,151.99000549316406,77.01000213623047,21.989999771118164,38.310001373291016,24.469999313354492,52.2400016784668,308.6000061035156,226.10000610351562,92.87999725341797,22.15999984741211,122.79000091552734,40.13999938964844,16.079999923706055,120.52999877929688,108.30999755859375,74.54000091552734,233.4499969482422,62.91999816894531,628.5800170898438,53.2599983215332,63.54999923706055,151.8699951171875,24.81999969482422,109.41999816894531,23.020000457763672,185.58999633789062,148.10000610351562,27.309999465942383,73.73999786376953,164.60000610351562,70.47000122070312,10.369999885559082,151.94,132.5,34.82,12.29
2020-04-28,333.45001220703125,100.81999969482422,87.18000030517578,57.349998474121094,16.15999984741211,160.99000549316406,154.4600067138672,70.12999725341797,20.549999237060547,43.599998474121094,103.94000244140625,17.68000030517578,60.70000076293945,116.27999877929688,96.22000122070312,22.610000610351562,155.00999450683594,77.01000213623047,20.979999542236328,38.720001220703125,23.469999313354492,51.779998779296875,296.0,236.69000244140625,100.0199966430664,21.290000915527344,119.55999755859375,38.93000030517578,15.649999618530273,116.13999938964844,104.80000305175781,74.13999938964844,223.38999938964844,62.779998779296875,633.6500244140625,51.880001068115234,61.75,148.61000061035156,24.700000762939453,104.58999633789062,21.93000030517578,182.74000549316406,145.07000732421875,26.8799991607666,71.91000366210938,156.72000122070312,66.72000122070312,10.430000305175781,147.66,127.85,35.95,12.1
2020-04-29,349.1700134277344,109.79000091552734,89.08000183105469,59.5,16.350000381469727,168.3000030517578,160.42999267578125,69.27999877929688,20.979999542236328,44.650001525878906,103.4000015258789,19.34000015258789,63.61000061035156,112.52999877929688,94.11000061035156,22.389999389648438,169.66000366210938,83.05000305175781,22.100000381469727,39.88999938964844,23.780000686645508,53.5,321.989990234375,270.0,112.75,21.5,122.91000366210938,41.56999969482422,16.989999771118164,123.58000183105469,104.83999633789062,81.19999694824219,225.27999877929688,64.76000213623047,639.989990234375,53.099998474121094,65.7699966430664,152.72999572753906,26.31999969482422,111.30000305175781,23.579999923706055,188.5500030517578,154.77000427246094,27.06999969482422,75.87000274658203,146.47999572753906,66.62999725341797,10.890000343322754,149.56,134.24,37.38,12.88
2020-04-30,353.6400146484375,109.86000061035156,89.37000274658203,60.7400016784668,16.139999389648438,176.08999633789062,161.9499969482422,67.66000366210938,21.020000457763672,45.119998931884766,104.75,19.450000762939453,64.13999938964844,111.37999725341797,92.66999816894531,21.649999618530273,168.6300048828125,80.63999938964844,21.479999542236328,40.900001525878906,23.559999465942383,53.689998626708984,351.5400085449219,261.0199890136719,114.52999877929688,21.110000610351562,121.7300033569336,40.86000061035156,16.440000534057617,123.0,105.44000244140625,79.72000122070312,228.52999877929688,64.48999786376953,632.2899780273438,52.720001220703125,65.13999938964844,155.49000549316406,26.059999465942383,112.30000305175781,23.75,190.8000030517578,153.89999389648438,26.690000534057617,76.87999725341797,135.1699981689453,67.08000183105469,10.569999694824219,151.3,130.81,38.35,12.8
2020-05-01,343.8399963378906,107.80000305175781,88.22000122070312,59.65999984741211,15.3100004196167,171.24000549316406,156.3699951171875,69.20999908447266,19.600000381469727,44.97999954223633,103.5199966430664,17.43000030517578,62.13999938964844,108.80000305175781,91.83000183105469,21.530000686645508,160.55999755859375,76.26000213623047,20.3700008392334,40.099998474121094,22.84000015258789,50.279998779296875,339.510009765625,241.66000366210938,107.13999938964844,20.729999542236328,118.48999786376953,39.060001373291016,15.510000228881836,120.61000061035156,99.86000061035156,78.06999969482422,218.10000610351562,62.2599983215332,613.6400146484375,52.27000045776367,63.0,154.58999633789062,24.959999084472656,107.9800033569336,23.834999084472656,187.77000427246094,146.66000366210938,26.3799991607666,72.55000305175781,138.55999755859375,66.8499984741211,10.229999542236328,148.84,124.18,35.89,12.14
2020-05-04,349.1099853515625,105.26000213623047,88.62999725341797,57.15999984741211,15.25,177.2100067138672,161.47000122070312,73.43000030517578,19.8799991607666,45.83000183105469,107.08000183105469,18.209999084472656,63.08000183105469,110.16999816894531,95.87999725341797,22.010000228881836,159.94000244140625,75.75,20.6200008392334,39.439998626708984,23.670000076293945,51.900001525878906,354.6400146484375,248.1199951171875,108.95999908447266,20.799999237060547,118.12999725341797,39.470001220703125,15.039999961853027,123.66000366210938,101.23999786376953,77.43000030517578,233.99000549316406,62.279998779296875,658.8900146484375,53.529998779296875,63.689998626708984,163.1300048828125,25.540000915527344,113.25,25.399999618530273,189.13999938964844,148.47000122070312,27.200000762939453,73.13999938964844,143.44000244140625,69.08000183105469,10.210000038146973,154.69,125.69,37.73,12.56
2020-05-05,356.1300048828125,111.5,90.36000061035156,61.04999923706055,15.720000267028809,189.72999572753906,163.25,71.58999633789062,20.03499984741211,46.599998474121094,109.3499984741211,19.219999313354492,63.68000030517578,112.86000061035156,96.0199966430664,22.739999771118164,171.4199981689453,78.04000091552734,21.15999984741211,40.470001220703125,24.510000228881836,53.029998779296875,370.6400146484375,256.9800109863281,112.7699966430664,21.299999237060547,121.86000061035156,39.599998474121094,15.989999771118164,125.43000030517578,102.58000183105469,79.73999786376953,234.1699981689453,63.25,686.1099853515625,54.56999969482422,66.69000244140625,169.5800018310547,26.1200008392334,116.56999969482422,27.709999084472656,192.86000061035156,152.17999267578125,27.290000915527344,75.33000183105469,144.82000732421875,71.2300033569336,10.029999732971191,158.73,132.35,37.99,12.73
2020-05-06,362.5199890136719,117.81999969482422,93.11000061035156,61.5,15.949999809265137,190.99000549316406,163.6699981689453,72.44000244140625,20.344999313354492,46.560001373291016,115.48999786376953,18.81999969482422,65.54000091552734,139.66000366210938,105.0999984741211,23.049999237060547,175.2100067138672,77.16999816894531,21.469999313354492,40.43000030517578,24.950000762939453,54.02000045776367,365.3900146484375,255.0399932861328,114.56999969482422,22.09000015258789,123.05999755859375,40.369998931884766,17.329999923706055,128.30999755859375,105.41000366210938,82.0199966430664,245.0399932861328,62.79999923706055,733.530029296875,54.619998931884766,68.0999984741211,172.9199981689453,27.059999465942383,122.4000015258789,27.774999618530273,192.9600067138672,152.27999877929688,27.6299991607666,73.29000091552734,149.58999633789062,72.54000091552734,10.460000038146973,164.43,143.72,39.75,13.12
2020-05-07,366.7799987792969,124.06999969482422,101.76000213623047,63.599998474121094,16.860000610351562,193.72999572753906,169.89999389648438,75.48999786376953,21.889999389648438,49.61000061035156,117.69999694824219,20.200000762939453,70.56999969482422,148.30999755859375,103.86000061035156,33.58000183105469,188.52999877929688,79.04000091552734,22.670000076293945,43.59000015258789,29.520000457763672,57.65999984741211,381.8299865722656,268.82000732421875,121.47000122070312,24.09000015258789,132.39999389648438,41.599998474121094,18.329999923706055,146.2899932861328,111.25,84.43000030517578,259.70001220703125,64.98999786376953,722.760009765625,55.90999984741211,74.62000274658203,179.77999877929688,28.010000228881836,170.88999938964844,28.610000610351562,191.25,160.66000366210938,29.950000762939453,78.52999877929688,157.8000030517578,74.87999725341797,10.989999771118164,170.29,149.9,40.78,13.75
2020-05-08,367.510009765625,125.36000061035156,96.44000244140625,63.970001220703125,17.170000076293945,193.88499450683594,175.89999389648438,76.69999694824219,21.8799991607666,51.72999954223633,116.55999755859375,20.81999969482422,71.72000122070312,153.8699951171875,104.52999877929688,34.79999923706055,184.25,81.5999984741211,23.729999542236328,40.93000030517578,26.260000228881836,58.54999923706055,377.260009765625,272.0299987792969,117.41999816894531,24.56999969482422,121.16999816894531,42.31999969482422,18.3799991607666,144.9600067138672,104.4000015258789,82.80000305175781,266.7300109863281,66.2300033569336,708.969970703125,56.41999816894531,76.05000305175781,176.19000244140625,28.239999771118164,179.69000244140625,30.280000686645508,192.33999633789062,165.5500030517578,31.15999984741211,77.87000274658203,155.39999389648438,74.0199966430664,11.260000228881836,169.38,159.95,42.35,14.19
2020-05-11,371.4200134277344,126.88999938964844,102.55000305175781,64.80000305175781,17.34000015258789,209.30999755859375,182.6699981689453,76.2300033569336,22.940000534057617,55.689998626708984,120.6500015258789,20.079999923706055,71.62000274658203,155.10000610351562,105.18000030517578,34.31999969482422,183.5399932861328,81.33000183105469,23.850000381469727,41.720001220703125,28.1200008392334,60.08000183105469,383.6499938964844,274.2900085449219,120.91999816894531,24.90999984741211,123.51000213623047,43.52000045776367,18.520000457763672,143.9600067138672,106.5199966430664,81.44000244140625,275.0299987792969,66.38999938964844,750.3400268554688,56.959999084472656,74.9000015258789,176.60000610351562,29.290000915527344,186.61000061035156,31.34000015258789,197.66000366210938,166.5800018310547,31.260000228881836,78.73999786376953,166.47999572753906,76.95999908447266,11.529999732971191,174.33,165.83,42.46,14.68
2020-05-12,365.1000061035156,120.47000122070312,97.62000274658203,63.31999969482422,16.899999618530273,209.7100067138672,177.5399932861328,76.1500015258789,22.1299991607666,68.86000061035156,120.26000213623047,20.690000534057617,70.62000274658203,160.77999877929688,104.27999877929688,37.099998474121094,179.25,72.11000061035156,23.260000228881836,40.0,28.790000915527344,59.029998779296875,365.6000061035156,263.45001220703125,115.33999633789062,24.850000381469727,118.9800033569336,42.7400016784668,17.729999542236328,141.02999877929688,104.80999755859375,78.72000122070312,278.79998779296875,65.93000030517578,742.280029296875,52.709999084472656,75.20999908447266,176.0,28.639999389648438,190.2899932861328,30.229999542236328,197.3699951171875,159.72999572753906,31.010000228881836,76.41999816894531,161.0399932861328,76.44999694824219,11.489999771118164,173.65,165.58,40.12,14.07
2020-05-13,358.55999755859375,118.47000122070312,99.29000091552734,61.459999084472656,16.8700008392334,205.3800048828125,169.63999938964844,76.56999969482422,21.520000457763672,69.98999786376953,119.06999969482422,20.0,69.1500015258789,158.9499969482422,100.83000183105469,36.54999923706055,175.9199981689453,70.83999633789062,23.610000610351562,37.88999938964844,27.8700008392334,56.540000915527344,361.2900085449219,243.30999755859375,110.4800033569336,24.170000076293945,115.0999984741211,40.40999984741211,17.969999313354492,143.72999572753906,101.7699966430664,78.16000366210938,283.0,64.55000305175781,754.3800048828125,52.06999969482422,73.79000091552734,175.75999450683594,28.219999313354492,187.4199981689453,32.56999969482422,195.14999389648438,153.75999450683594,30.200000762939453,73.08999633789062,167.13999938964844,75.16000366210938,10.819999694824219,177.36,166.2,39.18,13.3
2020-05-14,355.3900146484375,117.73999786376953,97.62000274658203,61.189998626708984,16.989999771118164,210.25,167.0,77.13999938964844,21.5,65.19000244140625,122.01000213623047,20.559999465942383,69.83999633789062,157.52000427246094,103.08000183105469,36.810001373291016,181.02999877929688,71.62000274658203,23.3700008392334,37.34000015258789,28.020000457763672,58.279998779296875,367.8299865722656,252.80999755859375,111.05999755859375,25.270000457763672,116.63999938964844,41.18000030517578,18.790000915527344,144.41000366210938,104.58999633789062,82.19000244140625,271.54998779296875,64.8499984741211,754.2899780273438,52.099998474121094,78.19999694824219,179.7899932861328,29.15999984741211,191.86000061035156,32.40999984741211,196.02999877929688,155.22999572753906,31.65999984741211,73.76000213623047,167.91000366210938,75.62000274658203,10.300000190734863,177.32,189.59,40.38,13.2
2020-05-15,365.29998779296875,124.13999938964844,102.9800033569336,64.2699966430664,17.170000076293945,212.61000061035156,171.3300018310547,77.13999938964844,22.3700008392334,67.16000366210938,125.87999725341797,22.280000686645508,70.6500015258789,158.8000030517578,106.20999908447266,39.5,183.6199951171875,72.36000061035156,24.670000076293945,36.7400016784668,29.489999771118164,63.88999938964844,370.4599914550781,261.67999267578125,113.58999633789062,25.719999313354492,115.61000061035156,43.11000061035156,19.049999237060547,145.50999450683594,105.80999755859375,80.08000183105469,285.8500061035156,64.2300033569336,767.0,52.869998931884766,80.26000213623047,186.5,29.049999237060547,189.22000122070312,34.38999938964844,200.42999267578125,154.3000030517578,31.329999923706055,74.55000305175781,174.8300018310547,76.38999938964844,10.579999923706055,181.6,201.78,40.58,13.54
2020-05-18,367.9700012207031,132.7100067138672,101.19999694824219,64.41000366210938,17.260000228881836,209.89999389648438,172.5,76.0999984741211,21.59000015258789,67.41000366210938,122.91999816894531,23.260000228881836,71.5,154.83999633789062,103.6500015258789,39.04999923706055,188.02000427246094,73.91000366210938,25.84000015258789,37.119998931884766,28.06999969482422,62.400001525878906,374.8699951171875,283.8999938964844,119.0,24.81999969482422,114.12000274658203,44.68000030517578,18.56999969482422,146.24000549316406,108.75,83.13999938964844,263.05999755859375,65.0999984741211,738.02001953125,53.790000915527344,76.62999725341797,182.16000366210938,29.399999618530273,183.38999938964844,34.279998779296875,197.1699981689453,150.55999755859375,29.0,76.0,164.69000244140625,73.80999755859375,10.850000381469727,179.43,193.76,41.12,14.01
2020-05-19,372.20001220703125,128.74000549316406,105.36000061035156,66.58999633789062,17.09000015258789,212.74000549316406,176.0399932861328,78.55000305175781,21.75,70.05999755859375,127.22000122070312,24.170000076293945,73.91000366210938,152.19000244140625,103.80000305175781,40.15999984741211,188.66000366210938,73.5199966430664,27.0,36.599998474121094,28.040000915527344,62.81999969482422,382.8800048828125,279.69000244140625,120.83999633789062,25.8700008392334,113.97000122070312,46.2599983215332,18.770000457763672,145.38999938964844,109.36000061035156,79.94999694824219,263.17999267578125,61.650001525878906,753.010009765625,55.630001068115234,79.25,181.27999877929688,29.350000381469727,183.24000549316406,34.22999954223633,196.0399932861328,157.4199981689453,29.690000534057617,77.87000274658203,173.67999267578125,75.23999786376953,10.869999885559082,180.78,191.68,40.43,14.07
2020-05-20,383.6300048828125,133.57000732421875,103.80999755859375,67.5199966430664,17.84000015258789,213.8699951171875,176.92999267578125,80.97000122070312,22.225000381469727,70.69999694824219,128.77000427246094,24.90999984741211,75.47000122070312,147.2899932861328,103.6500015258789,42.540000915527344,190.86000061035156,75.19000244140625,26.729999542236328,38.95000076293945,27.549999237060547,62.18000030517578,390.1600036621094,273.4700012207031,120.20999908447266,26.540000915527344,115.68000030517578,47.970001220703125,20.174999237060547,150.94000244140625,111.41999816894531,79.83000183105469,264.3599853515625,63.31999969482422,778.0,55.939998626708984,82.04000091552734,183.83999633789062,29.649999618530273,191.91000366210938,35.72999954223633,202.1699981689453,159.5399932861328,31.350000381469727,81.16000366210938,175.47999572753906,77.05999755859375,11.380000114440918,187.7,202.97,41.47,14.7
2020-05-21,382.1700134277344,136.07000732421875,102.47000122070312,67.6500015258789,17.889999389648438,212.5500030517578,175.25999450683594,80.5999984741211,22.1299991607666,69.88999938964844,132.85000610351562,24.459999084472656,76.44999694824219,144.2100067138672,103.33999633789062,44.25,190.4499969482422,75.41999816894531,26.739999771118164,39.380001068115234,28.040000915527344,61.95000076293945,383.6400146484375,274.2799987792969,121.19000244140625,26.709999084472656,112.22000122070312,48.95000076293945,20.299999237060547,148.22000122070312,109.5999984741211,80.16000366210938,260.54998779296875,64.19000244140625,802.3499755859375,55.970001220703125,81.48999786376953,180.25,29.0,194.0,35.41999816894531,197.47000122070312,163.8300018310547,31.639999389648438,80.18000030517578,172.02999877929688,75.62999725341797,11.350000381469727,187.74,206.81,41.44,14.34
2020-05-22,385.260009765625,139.61000061035156,107.0199966430664,69.5,19.09000015258789,227.47999572753906,177.85000610351562,82.22000122070312,21.665000915527344,73.04000091552734,133.0,25.010000228881836,83.47000122070312,144.49000549316406,104.70999908447266,41.08000183105469,194.2899932861328,76.61000061035156,26.969999313354492,39.619998931884766,28.260000228881836,63.810001373291016,387.9599914550781,269.3500061035156,117.8499984741211,27.8799991607666,112.31999969482422,51.060001373291016,21.59000015258789,150.86000061035156,112.0,81.83999633789062,261.5299987792969,66.0199966430664,825.1699829101562,56.560001373291016,81.48999786376953,182.60000610351562,29.200000762939453,208.6199951171875,36.790000915527344,202.9600067138672,168.14999389648438,31.709999084472656,81.93000030517578,171.05999755859375,76.94000244140625,12.0600004196167,192.49,215.21,42.24,14.79
2020-05-26,376.6300048828125,155.8000030517578,102.0,69.8499984741211,19.520000457763672,217.77999877929688,176.52000427246094,79.3499984741211,22.899999618530273,71.0,128.9499969482422,25.43000030517578,84.94999694824219,135.52999877929688,95.87999725341797,39.310001373291016,190.3000030517578,78.51000213623047,27.8799991607666,38.939998626708984,28.09000015258789,65.86000061035156,380.6700134277344,280.29998779296875,122.48999786376953,26.6200008392334,111.55000305175781,47.150001525878906,20.860000610351562,147.0,117.31999969482422,82.68000030517578,251.10000610351562,65.41999816894531,767.8900146484375,56.5,80.79000091552734,173.05999755859375,30.280000686645508,196.39999389648438,35.720001220703125,195.1199951171875,168.33999633789062,32.40999984741211,81.20999908447266,164.0,76.5199966430664,11.869999885559082,184.17,209.76,42.25,15.25
2020-05-27,375.1700134277344,150.3300018310547,94.08000183105469,69.9000015258789,19.639999389648438,210.7100067138672,176.60000610351562,77.98999786376953,22.809999465942383,66.81999969482422,126.54000091552734,25.1299991607666,80.62999725341797,138.33999633789062,98.61000061035156,39.41999816894531,193.74000549316406,80.33999633789062,27.969999313354492,39.38999938964844,28.190000534057617,66.04000091552734,371.1600036621094,287.05999755859375,126.87000274658203,24.690000534057617,110.97000122070312,45.060001373291016,20.709999084472656,145.9600067138672,112.79000091552734,83.55000305175781,251.97000122070312,67.19000244140625,750.0,53.84000015258789,81.0199966430664,175.30999755859375,30.260000228881836,192.35000610351562,34.88999938964844,191.99000549316406,170.3800048828125,32.11000061035156,78.80999755859375,161.97000122070312,74.52999877929688,11.65999984741211,179.42,205.96,43.31,16.31
2020-05-28,379.8299865722656,153.6999969482422,99.27999877929688,72.19999694824219,19.489999771118164,217.02000427246094,181.10000610351562,79.5,22.59000015258789,67.12999725341797,127.80000305175781,24.399999618530273,81.69999694824219,136.72999572753906,100.9000015258789,40.599998474121094,192.19000244140625,78.33999633789062,27.329999923706055,40.54999923706055,28.100000381469727,65.47000122070312,377.9800109863281,287.2099914550781,125.5,24.969999313354492,113.56999969482422,45.06999969482422,20.489999771118164,148.7899932861328,111.66000366210938,82.76000213623047,259.510009765625,66.3499984741211,744.4299926757812,54.380001068115234,79.62000274658203,178.32000732421875,29.950000762939453,191.39999389648438,35.55500030517578,204.1999969482422,182.55999755859375,32.540000915527344,84.37999725341797,163.5500030517578,75.80000305175781,11.239999771118164,183.92,207.4,43.56,15.32
2020-05-29,386.6000061035156,158.50999450683594,107.05999755859375,74.30000305175781,19.979999542236328,227.50999450683594,174.7899932861328,87.80999755859375,22.56999969482422,71.2699966430664,139.74000549316406,25.31999969482422,85.91999816894531,146.25999450683594,104.19999694824219,43.13999938964844,199.94000244140625,78.30000305175781,28.280000686645508,41.779998779296875,29.06999969482422,66.1500015258789,387.92999267578125,297.2300109863281,130.0050048828125,26.549999237060547,116.2699966430664,45.91999816894531,20.829999923706055,155.00999450683594,115.31999969482422,82.62000274658203,274.25,67.81999969482422,757.7999877929688,57.65999984741211,81.08000183105469,185.3000030517578,31.270000457763672,197.60000610351562,36.470001220703125,218.8699951171875,183.42999267578125,35.04999923706055,85.75,179.47999572753906,98.08999633789062,12.010000228881836,195.58,222.33,44.54,15.79
2020-06-01,389.67999267578125,162.0,109.48999786376953,77.44000244140625,19.3700008392334,233.9600067138672,176.36000061035156,94.83999633789062,23.540000915527344,69.48999786376953,147.22000122070312,28.600000381469727,89.66000366210938,150.85000610351562,107.2300033569336,47.2599983215332,213.22000122070312,79.36000061035156,29.899999618530273,43.38999938964844,30.049999237060547,67.97000122070312,383.3699951171875,305.6099853515625,134.83999633789062,28.010000228881836,118.51000213623047,45.91999816894531,21.350000381469727,154.52999877929688,117.93000030517578,84.16999816894531,279.3599853515625,68.62000274658203,758.0,59.31999969482422,82.72000122070312,188.32000732421875,32.060001373291016,199.0,36.630001068115234,218.9600067138672,177.9600067138672,37.18000030517578,87.55999755859375,204.14999389648438,109.9800033569336,12.260000228881836,204.78,220.97,45.02,16.65
2020-06-02,390.44000244140625,167.9499969482422,110.37000274658203,77.7699966430664,19.760000228881836,230.0800018310547,174.22999572753906,92.25,23.270000457763672,70.80999755859375,147.67999267578125,28.270000457763672,88.73999786376953,147.97999572753906,107.06999969482422,47.84000015258789,211.91000366210938,80.0,29.600000381469727,43.779998779296875,30.200000762939453,69.19999694824219,392.8999938964844,306.8399963378906,136.6699981689453,27.790000915527344,117.18000030517578,45.619998931884766,20.860000610351562,157.49000549316406,113.83999633789062,84.30999755859375,273.9599914550781,68.0199966430664,779.5,58.33000183105469,88.0,183.6699981689453,30.309999465942383,201.6699981689453,34.75,219.61000061035156,178.8300018310547,38.380001068115234,87.44000244140625,208.0800018310547,106.16999816894531,12.029999732971191,199.73,228.19,44.45,16.54
2020-06-03,389.9200134277344,172.58999633789062,109.1500015258789,79.0,19.030000686645508,224.2100067138672,174.99000549316406,98.0999984741211,23.549999237060547,72.88999938964844,147.4499969482422,31.139999389648438,89.2699966430664,143.47999572753906,100.81999969482422,48.06999969482422,210.16000366210938,81.19000244140625,26.010000228881836,44.43000030517578,29.3799991607666,70.33999633789062,388.0899963378906,306.9800109863281,139.91000366210938,28.31999969482422,116.6500015258789,45.40999984741211,20.760000228881836,156.77999877929688,114.29000091552734,85.05000305175781,270.92999267578125,68.8499984741211,762.02001953125,59.08000183105469,91.97000122070312,183.4600067138672,30.3799991607666,200.8000030517578,34.630001068115234,215.24000549316406,181.7100067138672,39.900001525878906,86.04000091552734,223.8699951171875,107.41000366210938,12.59000015258789,195.21,227.82,44.18,17.63
2020-06-04,385.79998779296875,170.49000549316406,101.47000122070312,74.86000061035156,18.719999313354492,218.0500030517578,171.44000244140625,95.9800033569336,23.280000686645508,71.76000213623047,140.05999755859375,29.059999465942383,85.8499984741211,130.25,94.72000122070312,47.38999938964844,207.1699981689453,79.05999755859375,24.459999084472656,43.380001068115234,28.469999313354492,67.86000061035156,376.95001220703125,303.1700134277344,132.4600067138672,26.920000076293945,112.86000061035156,43.65999984741211,20.649999618530273,154.60000610351562,110.91000366210938,82.48999786376953,254.05999755859375,67.33000183105469,735.1900024414062,45.5,87.72000122070312,172.10000610351562,29.920000076293945,193.0500030517578,33.349998474121094,206.1999969482422,175.3000030517578,37.939998626708984,82.55000305175781,210.35000610351562,103.05000305175781,12.680000305175781,186.29,219.75,43.29,16.67
2020-06-05,392.8999938964844,173.10000610351562,99.0999984741211,75.0,18.309999465942383,216.94000244140625,173.8800048828125,93.93000030517578,21.979999542236328,70.66000366210938,139.63999938964844,32.189998626708984,86.9000015258789,123.88999938964844,97.23999786376953,45.09000015258789,211.75999450683594,81.05000305175781,24.549999237060547,43.209999084472656,29.139999389648438,66.93000030517578,390.4599914550781,329.7799987792969,138.47999572753906,26.270000457763672,109.27999877929688,43.95000076293945,21.010000228881836,156.0,108.54000091552734,84.0999984741211,252.8800048828125,67.38999938964844,727.77001953125,44.540000915527344,89.93000030517578,174.25999450683594,29.600000381469727,196.7100067138672,33.15999984741211,202.8000030517578,178.6699981689453,32.560001373291016,82.7300033569336,207.60000610351562,99.30999755859375,12.75,180.6,213.29,43.26,16.31
2020-06-08,397.7799987792969,161.9499969482422,99.55999755859375,75.02999877929688,19.329999923706055,220.77999877929688,176.5500030517578,95.43000030517578,22.540000915527344,76.54000091552734,146.5399932861328,31.190000534057617,82.19000244140625,130.66000366210938,96.98999786376953,47.540000915527344,214.27000427246094,82.77999877929688,27.530000686645508,42.970001220703125,29.170000076293945,70.31999969482422,386.6400146484375,331.0199890136719,137.99000549316406,27.3700008392334,114.08000183105469,46.18000030517578,22.139999389648438,156.08999633789062,108.01000213623047,84.27999877929688,261.19000244140625,68.5,730.6699829101562,45.58000183105469,89.62000274658203,175.1999969482422,30.229999542236328,196.72999572753906,33.70500183105469,218.36000061035156,181.22999572753906,32.0099983215332,84.80000305175781,209.8300018310547,102.73999786376953,12.25,185.13,215.23,43.79,16.11
2020-06-09,397.1600036621094,162.27000427246094,100.9000015258789,76.19000244140625,19.309999465942383,224.58999633789062,174.55999755859375,93.9000015258789,21.93000030517578,73.73999786376953,141.9199981689453,29.959999084472656,81.94999694824219,131.9600067138672,96.06999969482422,45.52000045776367,208.25999450683594,81.08000183105469,27.3799991607666,42.88999938964844,28.719999313354492,69.31999969482422,388.8299865722656,327.6000061035156,135.60000610351562,26.729999542236328,116.47000122070312,46.290000915527344,20.030000686645508,156.86000061035156,107.37999725341797,83.69999694824219,258.42999267578125,67.76000213623047,741.7000122070312,45.68000030517578,89.52999877929688,173.5399932861328,29.670000076293945,194.27000427246094,35.130001068115234,213.5500030517578,179.75999450683594,31.31999969482422,86.01000213623047,205.42999267578125,103.58999633789062,12.420000076293945,180.07,215.87,43.41,15.6
2020-06-10,406.82000732421875,161.55999755859375,102.2699966430664,78.31999969482422,19.239999771118164,223.74000549316406,182.10000610351562,97.22000122070312,21.979999542236328,78.26000213623047,148.0500030517578,30.75,81.98999786376953,135.72000122070312,100.63999938964844,47.86000061035156,210.94000244140625,81.06999969482422,26.809999465942383,44.11000061035156,29.399999618530273,70.77999877929688,401.6600036621094,331.5,134.97000122070312,26.469999313354492,114.08999633789062,47.599998474121094,19.450000762939453,159.91000366210938,108.01000213623047,81.69000244140625,274.9599914550781,66.54000091552734,743.6400146484375,45.25,91.91000366210938,180.02999877929688,29.469999313354492,203.0800018310547,34.9900016784668,226.5500030517578,183.0500030517578,32.470001220703125,88.75,221.02000427246094,105.72000122070312,12.800000190734863,181.45,221.58,45.57,16.17
2020-06-11,387.6700134277344,150.22999572753906,99.6500015258789,74.44999694824219,17.979999542236328,217.97000122070312,172.0500030517578,95.04000091552734,20.420000076293945,76.05000305175781,148.89999389648438,27.889999389648438,79.0999984741211,129.77999877929688,101.22000122070312,45.81999969482422,200.86000061035156,76.31999969482422,25.549999237060547,41.790000915527344,28.5,67.47000122070312,375.04998779296875,295.67999267578125,124.44000244140625,24.350000381469727,107.76000213623047,43.029998779296875,17.989999771118164,153.0399932861328,102.27999877929688,78.8499984741211,257.1700134277344,63.72999954223633,725.1199951171875,45.0,86.08999633789062,173.5,28.780000686645508,188.4199981689453,31.809999465942383,213.64999389648438,173.5,30.34000015258789,79.7300033569336,222.07000732421875,102.68000030517578,11.789999961853027,178.87,215.91,43.54,15.13
2020-06-12,406.5400085449219,154.19000244140625,105.94999694824219,72.83000183105469,18.260000228881836,224.00999450683594,175.11000061035156,93.12000274658203,21.030000686645508,78.05000305175781,150.60000610351562,31.079999923706055,83.48999786376953,128.39999389648438,100.91999816894531,46.81999969482422,204.49000549316406,74.93000030517578,26.010000228881836,42.7599983215332,28.81999969482422,68.66000366210938,385.1300048828125,302.79998779296875,128.05999755859375,24.770000457763672,107.30000305175781,44.810001373291016,17.950000762939453,155.25999450683594,103.11000061035156,78.45999908447266,261.8800048828125,64.43000030517578,742.5800170898438,46.369998931884766,86.72000122070312,171.6199951171875,29.3799991607666,191.88999938964844,32.83000183105469,216.67999267578125,173.5500030517578,30.860000610351562,80.11000061035156,219.52000427246094,102.47000122070312,12.420000076293945,179.24,216.06,45.4,15.49
2020-06-15,401.3399963378906,157.58999633789062,113.3499984741211,75.94000244140625,18.459999084472656,238.38999938964844,178.61000061035156,99.0199966430664,21.520000457763672,81.5199966430664,162.69000244140625,28.56999969482422,86.20999908447266,136.0800018310547,103.58000183105469,51.97999954223633,208.83999633789062,74.18000030517578,27.0,42.439998626708984,30.979999542236328,67.23999786376953,392.5,307.7200012207031,131.8699951171875,27.09000015258789,109.04000091552734,46.06999969482422,17.270000457763672,157.5500030517578,101.61000061035156,78.43000030517578,270.25,65.6500015258789,805.469970703125,47.099998474121094,91.0,170.72999572753906,29.260000228881836,203.3000030517578,33.52000045776367,222.36000061035156,178.0,30.8700008392334,80.22000122070312,239.02000427246094,104.5199966430664,13.5,187.45,221.2,46.3,15.95
2020-06-16,411.6700134277344,158.36000061035156,116.73999786376953,77.37999725341797,18.969999313354492,247.75,180.47999572753906,101.04000091552734,22.549999237060547,81.98999786376953,163.0500030517578,30.959999084472656,87.26000213623047,133.94000244140625,104.13999938964844,53.560001373291016,215.05999755859375,75.05999755859375,26.8799991607666,43.95000076293945,31.649999618530273,70.45999908447266,398.4599914550781,312.6400146484375,136.25,29.219999313354492,110.08999633789062,46.38999938964844,18.25,161.22000122070312,102.5999984741211,80.18000030517578,277.4100036621094,67.22000122070312,805.760009765625,49.310001373291016,94.73999786376953,172.50999450683594,29.459999084472656,209.69000244140625,35.279998779296875,223.80999755859375,181.13999938964844,32.36000061035156,82.5199966430664,242.55999755859375,102.80999755859375,13.319999694824219,188.1,221.38,48.18,16.69
2020-06-17,413.489990234375,157.63999938964844,119.58000183105469,78.55999755859375,19.1299991607666,252.61000061035156,181.39999389648438,98.69000244140625,22.709999084472656,83.04000091552734,161.7100067138672,30.3700008392334,87.7300033569336,134.27000427246094,103.5199966430664,58.25,212.61000061035156,73.54000091552734,27.239999771118164,44.11000061035156,35.79999923706055,67.77999877929688,400.6499938964844,309.0199890136719,134.3800048828125,28.799999237060547,109.72000122070312,47.130001068115234,17.40999984741211,163.8300018310547,103.19999694824219,79.69000244140625,272.57000732421875,67.44999694824219,817.3599853515625,49.95000076293945,97.02999877929688,176.7100067138672,29.729999542236328,211.27999877929688,35.290000915527344,228.97999572753906,182.55999755859375,32.400001525878906,82.31999969482422,236.75999450683594,106.18000030517578,13.420000076293945,194.32,228.37,47.5,16.45
2020-06-18,420.4599914550781,157.52000427246094,124.01000213623047,80.08000183105469,19.299999237060547,259.80999755859375,187.66000366210938,101.61000061035156,23.0,86.6500015258789,162.3000030517578,32.25,89.51000213623047,135.86000061035156,103.05999755859375,62.13999938964844,212.9199981689453,71.54000091552734,26.389999389648438,43.84000015258789,36.72999954223633,67.79000091552734,401.0299987792969,316.29998779296875,143.91000366210938,31.0,106.93000030517578,47.63999938964844,17.299999237060547,168.0500030517578,101.16000366210938,81.30999755859375,284.94000244140625,67.44000244140625,863.5599975585938,50.88999938964844,98.2699966430664,177.6300048828125,30.18000030517578,215.2899932861328,35.40999984741211,228.0,187.80999755859375,34.220001220703125,82.72000122070312,241.57000732421875,113.05000305175781,13.520000457763672,196.31,231.88,49.6,16.94
2020-06-19,428.010009765625,159.3800048828125,124.44999694824219,79.6500015258789,19.790000915527344,258.8599853515625,186.9499969482422,101.08000183105469,23.299999237060547,86.79000091552734,161.4199981689453,30.059999465942383,90.66999816894531,130.1199951171875,100.79000091552734,63.689998626708984,219.97999572753906,75.13999938964844,27.1299991607666,43.20000076293945,36.0,69.7699966430664,399.8699951171875,318.1600036621094,142.1999969482422,30.579999923706055,109.87999725341797,47.52000045776367,17.709999084472656,164.36000061035156,100.4000015258789,80.54000091552734,276.1700134277344,66.97000122070312,881.0,49.900001525878906,97.9800033569336,172.63999938964844,29.809999465942383,210.2899932861328,35.47999954223633,226.6699981689453,183.55999755859375,33.130001068115234,81.25,243.47999572753906,108.56999969482422,13.010000228881836,198.19,236.85,50.95,16.31
2020-06-22,438.6400146484375,163.72000122070312,126.56999969482422,82.11000061035156,22.059999465942383,262.20001220703125,191.64999389648438,105.0199966430664,23.510000228881836,89.01000213623047,168.3000030517578,31.889999389648438,93.47000122070312,134.2899932861328,108.62999725341797,73.2699966430664,223.8800048828125,73.8499984741211,27.809999465942383,43.47999954223633,37.0,72.58000183105469,402.82000732421875,322.6600036621094,144.3800048828125,30.829999923706055,109.19000244140625,47.720001220703125,18.459999084472656,170.25999450683594,103.16999816894531,83.66000366210938,287.6700134277344,67.81999969482422,904.8099975585938,52.869998931884766,104.22000122070312,184.55999755859375,30.65999984741211,216.25,37.06999969482422,238.9199981689453,184.94000244140625,34.209999084472656,84.94999694824219,251.27000427246094,109.66999816894531,13.510000228881836,199.19,243.85,51.6,16.8
2020-06-23,440.54998779296875,162.88999938964844,127.93000030517578,82.12999725341797,20.790000915527344,262.4700012207031,189.05999755859375,104.2699966430664,23.649999618530273,89.69000244140625,166.8000030517578,31.110000610351562,92.86000061035156,140.5,106.52999877929688,75.9000015258789,226.0399932861328,72.98999786376953,27.940000534057617,43.40999984741211,35.400001525878906,72.4000015258789,400.94000244140625,329.6400146484375,146.3300018310547,29.389999389648438,106.87000274658203,47.040000915527344,17.989999771118164,172.7899932861328,103.19000244140625,82.11000061035156,278.4800109863281,67.8499984741211,911.3400268554688,53.22999954223633,104.75,182.3300018310547,30.09000015258789,215.25,36.56999969482422,239.10000610351562,185.33999633789062,34.040000915527344,85.18000030517578,252.80999755859375,110.30999755859375,13.34000015258789,195.62,243.32,52.66,17.76
2020-06-24,431.67999267578125,158.7899932861328,131.1300048828125,80.91999816894531,20.329999923706055,257.9100036621094,185.5500030517578,103.69999694824219,22.639999389648438,88.5,163.91000366210938,30.520000457763672,91.1500015258789,134.3300018310547,103.63999938964844,76.06999969482422,219.08999633789062,69.5999984741211,26.549999237060547,44.02000045776367,35.0,69.87000274658203,392.92999267578125,312.57000732421875,142.75999450683594,28.860000610351562,106.11000061035156,43.79999923706055,17.079999923706055,168.0,102.43000030517578,83.88999938964844,267.5799865722656,65.36000061035156,897.0,52.79999923706055,100.87999725341797,176.82000732421875,30.170000076293945,212.1699981689453,35.619998931884766,234.30999755859375,180.07000732421875,31.969999313354492,81.76000213623047,255.89999389648438,108.26000213623047,12.789999961853027,195.82,241.28,52.74,16.53
2020-06-25,436.95001220703125,161.22999572753906,137.58999633789062,84.22000122070312,20.950000762939453,274.2300109863281,188.33999633789062,105.70999908447266,22.15999984741211,89.5999984741211,168.39999389648438,31.649999618530273,92.97000122070312,137.5800018310547,106.97000122070312,81.66999816894531,221.75,70.01000213623047,27.5,43.22999954223633,36.0,69.5,401.6400146484375,317.0400085449219,143.11000061035156,28.950000762939453,107.36000061035156,43.90999984741211,17.299999237060547,172.5,102.79000091552734,86.70999908447266,279.4800109863281,65.72000122070312,916.3200073242188,53.970001220703125,104.77999877929688,180.36000061035156,30.850000381469727,216.52000427246094,35.810001373291016,236.82000732421875,186.25999450683594,32.81999969482422,84.76000213623047,259.510009765625,111.61000061035156,13.130000114440918,204.22,253.7,55.45,16.93
2020-06-26,426.9200134277344,157.83999633789062,134.13999938964844,81.7300033569336,21.479999542236328,275.70001220703125,183.1699981689453,98.79000091552734,21.469999313354492,84.5,177.5800018310547,30.899999618530273,92.11000061035156,140.9199981689453,107.72000122070312,86.51000213623047,225.0399932861328,69.06999969482422,26.25,40.18000030517578,35.529998779296875,67.87000274658203,399.9700012207031,306.3699951171875,142.94000244140625,29.110000610351562,109.48999786376953,43.95000076293945,17.5,170.8699951171875,100.87000274658203,84.20999908447266,289.2900085449219,65.55000305175781,910.0,52.97999954223633,104.30000305175781,181.00999450683594,29.700000762939453,221.14999389648438,37.7400016784668,234.92999267578125,187.47999572753906,32.529998779296875,86.41999816894531,256.79998779296875,106.0,12.970000267028809,203.49,251.83,55.5,16.06
2020-06-29,424.20001220703125,160.33999633789062,133.58999633789062,82.77999877929688,20.219999313354492,272.94000244140625,183.3300018310547,98.0999984741211,21.290000915527344,83.72000122070312,171.6699981689453,31.450000762939453,91.76000213623047,135.19000244140625,107.72000122070312,78.1500015258789,217.66000366210938,69.5,25.010000228881836,40.72999954223633,35.11000061035156,67.45999908447266,394.54998779296875,300.3599853515625,139.55999755859375,28.0,108.19999694824219,44.790000915527344,17.350000381469727,168.35000610351562,100.83000183105469,84.91999816894531,270.9599914550781,64.51000213623047,922.4199829101562,49.790000915527344,103.68000030517578,175.1300048828125,29.15999984741211,210.99000549316406,36.880001068115234,230.19000244140625,186.17999267578125,30.8700008392334,86.3499984741211,248.55999755859375,105.38999938964844,12.539999961853027,199.84,249.7,54.67,16.17
2020-06-30,435.30999755859375,162.7100067138672,133.08999633789062,82.91000366210938,20.760000228881836,277.0400085449219,187.3300018310547,100.29000091552734,21.770000457763672,86.94999694824219,172.2100067138672,32.16999816894531,92.20999908447266,138.36000061035156,110.66999816894531,85.12999725341797,224.35000610351562,63.209999084472656,25.239999771118164,41.65999984741211,35.95000076293945,68.9000015258789,405.05999755859375,309.7300109863281,145.88999938964844,28.6200008392334,111.12000274658203,45.310001373291016,18.049999237060547,174.22999572753906,104.0199966430664,85.79000091552734,285.010009765625,65.01000213623047,949.2000122070312,50.91999816894531,104.94000244140625,180.27000427246094,29.809999465942383,219.4199981689453,37.959999084472656,234.4199981689453,187.36000061035156,31.09000015258789,88.52999877929688,253.5399932861328,109.5,12.75,200.23,256.22,53.49,16.61
2020-07-01,439.80999755859375,167.4499969482422,139.1999969482422,87.16000366210938,21.229999542236328,287.7900085449219,191.88999938964844,102.94999694824219,21.780000686645508,89.37999725341797,178.9600067138672,33.630001068115234,94.72000122070312,147.97000122070312,114.12999725341797,86.44999694824219,232.5500030517578,64.0999984741211,27.40999984741211,43.279998779296875,36.93000030517578,71.80000305175781,416.7900085449219,320.260009765625,150.8800048828125,29.799999237060547,113.79000091552734,47.0099983215332,18.81999969482422,177.42999267578125,104.01000213623047,87.63999938964844,290.30999755859375,65.47000122070312,1016.6400146484375,53.86000061035156,115.9000015258789,185.61000061035156,30.139999389648438,227.77000427246094,38.61000061035156,242.22000122070312,191.47000122070312,31.059999465942383,89.23999786376953,259.1300048828125,111.51000213623047,12.90999984741211,210.92,265.77,55.48,17.31
2020-07-02,442.95001220703125,163.55999755859375,136.25999450683594,88.06999969482422,20.68000030517578,290.7900085449219,192.52999877929688,107.2699966430664,21.649999618530273,89.58999633789062,190.99000549316406,35.61000061035156,94.58000183105469,146.49000549316406,113.58000183105469,84.51000213623047,232.52999877929688,61.689998626708984,27.93000030517578,43.2599983215332,36.470001220703125,71.05999755859375,414.2099914550781,321.5,152.99000549316406,30.010000228881836,112.23999786376953,48.0099983215332,19.030000686645508,177.2100067138672,104.70999908447266,87.81999969482422,287.6300048828125,65.41999816894531,1029.969970703125,52.70000076293945,113.38999938964844,190.0800018310547,29.56999969482422,232.35000610351562,39.310001373291016,242.0399932861328,188.4499969482422,30.309999465942383,88.4800033569336,261.739990234375,110.20999908447266,12.84000015258789,207.76,272.85,55.1,17.33
2020-07-06,452.5899963378906,166.39999389648438,133.2899932861328,87.75,20.84000015258789,287.0400085449219,197.72000122070312,106.38999938964844,22.420000076293945,88.95999908447266,190.66000366210938,36.0099983215332,93.54000091552734,147.3699951171875,115.3499984741211,84.37000274658203,235.1300048828125,62.08000183105469,27.84000015258789,43.66999816894531,38.34000015258789,68.4000015258789,416.44000244140625,321.4100036621094,150.85000610351562,29.690000534057617,113.68000030517578,49.439998626708984,18.889999389648438,176.17999267578125,106.83000183105469,90.05000305175781,290.7900085449219,65.11000061035156,986.77001953125,50.97999954223633,118.97000122070312,190.47000122070312,29.670000076293945,235.44000244140625,38.7400016784668,245.5500030517578,190.7899932861328,31.1200008392334,89.37000274658203,261.0,114.77999877929688,12.729999542236328,207.26,276.56,55.35,17.26
2020-07-07,449.3599853515625,161.19000244140625,136.38999938964844,85.19000244140625,20.6299991607666,290.3800048828125,196.3800048828125,106.41999816894531,22.440000534057617,90.08999633789062,197.75,36.54999923706055,93.31999969482422,146.38999938964844,114.68000030517578,87.51000213623047,235.25999450683594,59.880001068115234,28.520000457763672,43.150001525878906,37.90999984741211,66.87000274658203,411.739990234375,313.7300109863281,143.8300018310547,29.739999771118164,112.69999694824219,49.43000030517578,18.479999542236328,177.27999877929688,105.94999694824219,88.7300033569336,286.7300109863281,65.18000030517578,1013.989990234375,50.56999969482422,125.5999984741211,190.44000244140625,30.190000534057617,233.3000030517578,39.130001068115234,244.9499969482422,191.60000610351562,31.479999542236328,89.75,262.1000061035156,113.83999633789062,12.630000114440918,207.34,282.81,55.05,17.27
2020-07-08,457.67999267578125,162.7100067138672,141.27000427246094,86.41000366210938,21.209999084472656,304.8699951171875,200.27999877929688,114.55000305175781,22.739999771118164,96.12999725341797,206.35000610351562,37.9900016784668,96.58999633789062,151.4600067138672,118.19999694824219,96.16000366210938,239.66000366210938,59.59000015258789,29.40999984741211,43.58000183105469,38.400001525878906,67.51000213623047,425.20001220703125,319.1400146484375,147.89999389648438,30.059999465942383,118.04000091552734,51.33000183105469,19.020000457763672,181.57000732421875,107.27999877929688,91.54000091552734,294.32000732421875,65.55999755859375,1017.2999877929688,52.86000061035156,133.35000610351562,195.8800048828125,30.8799991607666,243.61000061035156,41.7400016784668,252.39999389648438,198.3000030517578,34.2400016784668,92.31999969482422,266.32000732421875,120.8499984741211,12.680000305175781,219.78,292.12,55.76,18.0
2020-07-09,460.8399963378906,161.1199951171875,140.3699951171875,87.37999725341797,20.979999542236328,312.2200012207031,200.74000549316406,117.45999908447266,22.399999618530273,96.0999984741211,212.4199981689453,37.970001220703125,98.31999969482422,151.97000122070312,120.94000244140625,102.72000122070312,238.11000061035156,57.88999938964844,31.81999969482422,44.650001525878906,39.72999954223633,68.19000244140625,426.3699951171875,314.010009765625,145.6300048828125,30.079999923706055,122.5199966430664,51.18000030517578,19.399999618530273,183.22999572753906,109.48999786376953,93.66000366210938,295.6400146484375,66.52999877929688,1040.02001953125,52.880001068115234,129.38999938964844,195.72000122070312,31.420000076293945,245.3000030517578,41.130001068115234,256.69000244140625,197.55999755859375,34.02000045776367,94.2699966430664,269.5199890136719,127.41000366210938,12.84000015258789,222.95,296.71,55.67,18.2
2020-07-10,466.20001220703125,161.27999877929688,136.5399932861328,87.44000244140625,20.56999969482422,308.2799987792969,198.8800048828125,116.6500015258789,22.110000610351562,96.41000366210938,210.11000061035156,35.630001068115234,95.2300033569336,147.17999267578125,119.05999755859375,94.91000366210938,233.6300048828125,56.9900016784668,30.049999237060547,43.56999969482422,40.08000183105469,67.87999725341797,422.9100036621094,309.0,144.5399932861328,28.219999313354492,122.55000305175781,49.0,18.969999313354492,178.39999389648438,110.01000213623047,91.4000015258789,284.5,66.20999908447266,1031.8599853515625,51.41999816894531,128.0500030517578,192.0,31.170000076293945,240.5800018310547,40.16999816894531,254.16000366210938,195.8800048828125,33.84000015258789,92.5,275.8699951171875,125.48999786376953,12.430000305175781,218.73,294.23,55.07,17.79
2020-07-13,442.4700012207031,149.3800048828125,126.9000015258789,83.30999755859375,19.170000076293945,283.010009765625,188.33999633789062,106.20999908447266,20.260000228881836,86.66000366210938,190.02000427246094,33.33000183105469,89.69999694824219,134.3699951171875,110.77999877929688,83.19999694824219,218.08999633789062,55.7400016784668,28.09000015258789,40.90999984741211,36.75,65.12999725341797,401.8699951171875,290.25,135.36000061035156,25.670000076293945,117.63999938964844,46.97999954223633,17.709999084472656,171.50999450683594,106.93000030517578,86.5999984741211,260.2200012207031,65.16000366210938,968.75,47.470001220703125,118.6500015258789,179.5500030517578,29.149999618530273,224.8000030517578,40.29999923706055,240.77000427246094,184.77000427246094,33.41999816894531,87.69000244140625,260.29998779296875,119.91000366210938,11.65999984741211,200.09,281.0,53.48,16.79
2020-07-14,433.7799987792969,149.8699951171875,128.25,84.0,18.81999969482422,297.7900085449219,189.55999755859375,105.61000061035156,20.290000915527344,88.88999938964844,196.42999267578125,33.84000015258789,88.93000030517578,135.05999755859375,112.51000213623047,81.87000274658203,211.99000549316406,56.25,27.09000015258789,41.06999969482422,36.75,66.11000061035156,413.2300109863281,286.44000244140625,135.1699981689453,25.399999618530273,117.0199966430664,46.34000015258789,18.510000228881836,172.3000030517578,109.05999755859375,87.55999755859375,262.5799865722656,64.54000091552734,974.4099731445312,46.900001525878906,121.23999786376953,174.14999389648438,29.1299991607666,223.82000732421875,40.619998931884766,244.47000122070312,185.67999267578125,32.369998931884766,88.68000030517578,260.010009765625,122.43000030517578,11.649999618530273,206.75,279.82,53.93,16.67
2020-07-15,433.010009765625,148.92999267578125,125.79000091552734,85.30999755859375,19.030000686645508,297.17999267578125,188.08999633789062,103.1500015258789,20.850000381469727,88.4800033569336,192.8300018310547,34.08000183105469,89.76000213623047,135.11000061035156,112.7300033569336,82.37000274658203,216.36000061035156,58.189998626708984,27.459999084472656,41.38999938964844,36.119998931884766,66.94999694824219,423.55999755859375,294.19000244140625,137.61000061035156,25.809999465942383,115.12000274658203,45.61000061035156,18.700000762939453,172.05999755859375,109.73999786376953,89.2300033569336,257.2099914550781,66.18000030517578,959.4500122070312,46.04999923706055,122.19999694824219,175.32000732421875,29.799999237060547,224.27000427246094,41.349998474121094,247.75999450683594,183.22999572753906,32.119998931884766,88.41999816894531,256.2200012207031,119.83999633789062,12.039999961853027,204.05,273.68,53.68,16.67
